# Phonon frequencies in cm-1
    1          32.542          32.542          38.338          38.338          42.892          42.892          47.641          47.641          57.257          57.257          59.207          59.207          59.972          59.972          66.062          66.062          71.234          71.234          78.140          78.140          82.346          82.346          85.571          85.571          90.439          90.439          91.348          91.348          91.920          91.920          98.229          98.229         106.985         106.985         108.915         108.915         121.579         121.579         132.115         132.115         138.492         138.492         146.798         146.798         162.769         162.769         172.288         172.288
    2          32.511          32.569          38.302          38.368          42.701          43.071          47.605          47.675          57.110          57.388          59.019          59.327          60.009          60.010          66.029          66.103          71.213          71.260          78.087          78.176          82.191          82.499          85.561          85.585          90.330          90.463          91.345          91.371          91.788          92.124          98.188          98.276         106.866         107.091         108.741         109.090         121.392         121.779         132.058         132.172         138.465         138.521         146.792         146.803         162.727         162.812         172.247         172.328
    3          32.476          32.592          38.260          38.393          42.501          43.240          47.566          47.705          56.955          57.485          58.820          59.350          60.081          60.144          66.006          66.153          71.197          71.291          78.016          78.194          82.033          82.646          85.557          85.601          90.162          90.406          91.313          91.382          91.826          92.356          98.153          98.327         106.737         107.180         108.575         109.262         121.220         121.991         131.999         132.226         138.442         138.552         146.787         146.807         162.683         162.854         172.203         172.366
    4          32.437          32.610          38.213          38.411          42.291          43.396          47.524          47.732          56.797          57.516          58.663          59.306          60.166          60.341          65.991          66.212          71.185          71.328          77.929          78.193          81.873          82.788          85.561          85.615          89.965          90.290          91.184          91.443          92.002          92.602          98.124          98.383         106.600         107.244         108.426         109.429         121.064         122.215         131.939         132.279         138.421         138.586         146.781         146.811         162.639         162.895         172.159         172.402
    5          32.393          32.624          38.161          38.424          42.074          43.539          47.480          47.756          56.637          57.439          58.596          59.235          60.254          60.559          65.986          66.279          71.178          71.370          77.826          78.175          81.714          82.923          85.574          85.623          89.760          90.138          91.046          91.515          92.232          92.855          98.101          98.443         106.456         107.269         108.308         109.590         120.924         122.449         131.878         132.330         138.403         138.623         146.774         146.815         162.595         162.936         172.112         172.437
    6          32.345          32.633          38.104          38.429          41.848          43.669          47.435          47.775          56.479          57.251          58.626          59.155          60.342          60.780          65.991          66.355          71.174          71.420          77.708          78.139          81.556          83.052          85.595          85.622          89.558          89.962          90.917          91.592          92.485          93.113          98.085          98.507         106.304         107.241         108.236         109.741         120.801         122.693         131.817         132.379         138.388         138.661         146.768         146.819         162.550         162.976         172.064         172.470
    7          32.293          32.638          38.043          38.428          41.616          43.783          47.388          47.790          56.324          56.988          58.719          59.075          60.427          60.995          66.006          66.439          71.174          71.475          77.575          78.085          81.400          83.175          85.607          85.623          89.366          89.774          90.800          91.671          92.751          93.371          98.077          98.575         106.146         107.155         108.217         109.883         120.698         122.945         131.754         132.425         138.377         138.702         146.761         146.822         162.504         163.016         172.015         172.501
    8          32.236          32.638          37.977          38.420          41.377          43.883          47.339          47.801          56.171          56.682          58.841          59.000          60.508          61.199          66.031          66.531          71.177          71.538          77.429          78.014          81.246          83.291          85.573          85.656          89.191          89.580          90.693          91.749          93.024          93.629          98.078          98.646         105.982         107.021         108.242         110.013         120.613         123.206         131.692         132.469         138.369         138.744         146.753         146.824         162.458         163.055         171.963         172.531
    9          32.175          32.634          37.907          38.405          41.132          43.965          47.289          47.807          56.022          56.349          58.932          58.977          60.586          61.388          66.067          66.630          71.184          71.607          77.271          77.927          81.096          83.403          85.517          85.690          89.037          89.388          90.596          91.827          93.300          93.883          98.088          98.720         105.812         106.855         108.295         110.131         120.549         123.473         131.629         132.510         138.365         138.789         146.745         146.827         162.412         163.094         171.910         172.559
   10          32.110          32.625          37.833          38.383          40.882          44.031          47.238          47.808          55.877          56.000          58.873          59.113          60.661          61.562          66.114          66.737          71.193          71.684          77.101          77.826          80.950          83.511          85.436          85.722          88.906          89.202          90.509          91.903          93.579          94.132          98.108          98.798         105.635         106.672         108.365         110.237         120.506         123.748         131.565         132.549         138.364         138.835         146.737         146.828         162.365         163.133         171.856         172.585
   11          32.041          32.611          37.755          38.354          40.628          44.079          47.187          47.804          55.638          55.737          58.824          59.245          60.735          61.718          66.172          66.850          71.204          71.768          76.922          77.711          80.808          83.616          85.327          85.747          88.801          89.025          90.431          91.978          93.858          94.373          98.140          98.878         105.453         106.478         108.443         110.329         120.483         124.027         131.502         132.584         138.367         138.883         146.729         146.830         162.317         163.170         171.800         172.610
   12          31.966          32.592          37.673          38.318          40.370          44.109          47.134          47.795          55.267          55.602          58.788          59.366          60.809          61.856          66.242          66.969          71.218          71.860          76.733          77.583          80.669          83.720          85.191          85.760          88.720          88.862          90.364          92.050          94.137          94.605          98.184          98.960         105.266         106.280         108.526         110.408         120.482         124.312         131.439         132.616         138.374         138.933         146.721         146.831         162.269         163.208         171.742         172.633
   13          31.887          32.569          37.588          38.274          40.108          44.120          47.081          47.780          54.887          55.472          58.765          59.472          60.888          61.975          66.321          67.094          71.235          71.959          76.538          77.445          80.535          83.823          85.029          85.757          88.664          88.712          90.308          92.121          94.415          94.826          98.242          99.045         105.073         106.080         108.612         110.473         120.502         124.602         131.375         132.645         138.384         138.984         146.712         146.831         162.220         163.245         171.683         172.654
   14          31.804          32.540          37.499          38.222          39.844          44.112          47.028          47.760          54.501          55.348          58.755          59.558          60.972          62.074          66.412          67.224          71.253          72.066          76.337          77.298          80.405          83.926          84.842          85.735          88.578          88.628          90.267          92.190          94.692          95.032          98.315          99.131         104.875         105.882         108.700         110.526         120.543         124.896         131.312         132.670         138.399         139.037         146.703         146.831         162.171         163.281         171.623         172.673
   15          31.715          32.506          37.406          38.163          39.578          44.085          46.975          47.736          54.109          55.229          58.760          59.621          61.066          62.155          66.511          67.357          71.273          72.179          76.131          77.142          80.279          84.029          84.634          85.690          88.459          88.610          90.241          92.257          94.967          95.223          98.405          99.219         104.672         105.686         108.788         110.565         120.604         125.193         131.249         132.692         138.418         139.091         146.694         146.831         162.121         163.317         171.560         172.691
   16          31.621          32.466          37.310          38.097          39.311          44.040          46.922          47.705          53.711          55.116          58.778          59.659          61.169          62.217          66.619          67.494          71.295          72.299          75.923          76.981          80.157          84.134          84.408          85.624          88.353          88.606          90.233          92.321          95.239          95.395          98.511          99.307         104.466         105.495         108.876         110.592         120.685         125.493         131.187         132.710         138.441         139.147         146.684         146.830         162.071         163.353         171.497         172.707
   17          31.523          32.421          37.209          38.023          39.044          43.975          46.868          47.670          53.310          55.008          58.810          59.672          61.281          62.262          66.733          67.635          71.318          72.424          75.715          76.815          80.039          84.168          84.239          85.537          88.256          88.613          90.244          92.384          95.509          95.549          98.633          99.396         104.255         105.309         108.965         110.608         120.785         125.796         131.124         132.724         138.468         139.204         146.674         146.829         162.020         163.388         171.432         172.721
   18          31.418          32.370          37.103          37.941          38.777          43.892          46.815          47.630          52.904          54.905          58.856          59.660          61.401          62.291          66.854          67.777          71.343          72.553          75.508          76.646          79.924          83.915          84.346          85.431          88.165          88.628          90.275          92.445          95.684          95.776          98.772          99.484         104.043         105.131         109.054         110.613         120.903         126.100         131.063         132.735         138.499         139.262         146.665         146.828         161.968         163.423         171.365         172.734
   19          31.308          32.314          36.991          37.852          38.513          43.792          46.763          47.584          52.494          54.806          58.916          59.626          61.527          62.304          66.978          67.921          71.368          72.685          75.306          76.475          79.812          83.653          84.450          85.313          88.076          88.648          90.325          92.504          95.799          96.039          98.926          99.571         103.828         104.962         109.142         110.608         121.038         126.407         131.002         132.742         138.535         139.321         146.654         146.826         161.916         163.457         171.298         172.745
   20          31.192          32.251          36.873          37.755          38.254          43.675          46.711          47.534          52.082          54.712          58.988          59.570          61.657          62.303          67.105          68.066          71.395          72.815          75.113          76.304          79.704          83.384          84.550          85.188          87.987          88.672          90.394          92.561          95.896          96.298          99.092          99.655         103.613         104.803         109.231         110.595         121.188         126.715         130.941         132.745         138.574         139.382         146.644         146.823         161.864         163.491         171.228         172.755
   21          31.070          32.182          36.745          37.651          38.001          43.543          46.659          47.478          51.667          54.620          59.073          59.495          61.788          62.291          67.233          68.212          71.423          72.939          74.934          76.134          79.598          83.109          84.632          85.074          87.896          88.698          90.480          92.615          95.974          96.553          99.268          99.736         103.399         104.656         109.320         110.575         121.352         127.023         130.882         132.744         138.617         139.443         146.634         146.821         161.811         163.525         171.158         172.763
   22          30.942          32.106          36.606          37.539          37.757          43.395          46.608          47.418          51.249          54.531          59.168          59.403          61.918          62.268          67.361          68.359          71.451          73.048          74.778          75.965          79.496          82.830          84.656          85.014          87.802          88.724          90.582          92.668          96.036          96.803          99.451          99.812         103.189         104.522         109.410         110.548         121.530         127.333         130.823         132.739         138.665         139.506         146.623         146.818         161.757         163.558         171.086         172.769
   23          30.807          32.024          36.453          37.420          37.526          43.235          46.558          47.354          50.830          54.443          59.274          59.294          62.046          62.236          67.488          68.505          71.480          73.131          74.658          75.800          79.396          82.549          84.581          85.049          87.704          88.749          90.696          92.718          96.083          97.048          99.639          99.879         102.985         104.403         109.500         110.515         121.719         127.642         130.765         132.731         138.716         139.570         146.613         146.814         161.703         163.590         171.013         172.773
   24          30.664          31.934          36.283          37.293          37.311          43.062          46.509          47.285          50.410          54.355          59.171          59.389          62.171          62.197          67.612          68.651          71.510          73.171          74.590          75.640          79.299          82.266          84.450          85.139          87.602          88.773          90.821          92.766          96.116          97.286          99.827          99.936         102.792         104.301         109.591         110.478         121.920         127.951         130.708         132.720         138.771         139.634         146.602         146.810         161.649         163.623         170.938         172.776
   25          30.515          31.837          36.095          37.113          37.159          42.880          46.460          47.211          49.989          54.266          59.033          59.510          62.153          62.290          67.732          68.796          71.540          73.158          74.585          75.484          79.205          81.982          84.300          85.249          87.498          88.795          90.954          92.812          96.136          97.519          99.977         100.013         102.612         104.216         109.683         110.437         122.130         128.259         130.652         132.706         138.830         139.700         146.591         146.806         161.594         163.654         170.863         172.778
   26          30.358          31.733          35.889          36.933          37.018          42.688          46.413          47.133          49.569          54.174          58.882          59.638          62.107          62.404          67.848          68.940          71.570          73.092          74.642          75.334          79.113          81.699          84.144          85.366          87.392          88.814          91.094          92.855          96.145          97.743         100.000         100.194         102.453         104.152         109.776         110.394         122.348         128.565         130.597         132.689         138.892         139.766         146.580         146.801         161.538         163.686         170.786         172.778
   27          30.192          31.620          35.667          36.769          36.870          42.488          46.365          47.051          49.148          54.079          58.718          59.769          62.062          62.511          67.958          69.082          71.601          72.985          74.749          75.190          79.024          81.418          83.987          85.486          87.285          88.831          91.240          92.896          96.142          97.958          99.998         100.368         102.321         104.110         109.871         110.348         122.574         128.870         130.543         132.670         138.957         139.833         146.569         146.796         161.482         163.717         170.708         172.776
   28          30.019          31.498          35.431          36.618          36.715          42.283          46.319          46.965          48.730          53.979          58.543          59.900          62.020          62.610          68.063          69.221          71.632          72.855          74.891          75.053          78.938          81.139          83.832          85.606          87.178          88.845          91.389          92.934          96.129          98.160          99.971         100.531         102.220         104.090         109.967         110.301         122.806         129.172         130.490         132.649         139.026         139.901         146.558         146.791         161.426         163.747         170.629         172.773
   29          29.837          31.368          35.186          36.476          36.553          42.073          46.272          46.875          48.315          53.872          58.356          60.030          61.985          62.702          68.161          69.356          71.662          72.711          74.924          75.056          78.855          80.864          83.680          85.724          87.075          88.855          91.541          92.969          96.107          98.346          99.918         100.682         102.155         104.095         110.066         110.254         123.044         129.470         130.439         132.627         139.098         139.969         146.546         146.786         161.369         163.778         170.549         172.768
   30          29.645          31.228          34.934          36.341          36.385          41.860          46.224          46.781          47.904          53.757          58.159          60.154          61.962          62.785          68.253          69.486          71.693          72.564          74.802          75.234          78.774          80.594          83.532          85.835          86.977          88.862          91.694          93.001          96.076          98.506          99.848         100.820         102.126         104.124         110.167         110.207         123.287         129.763         130.389         132.606         139.172         140.038         146.535         146.780         161.311         163.807         170.468         172.762
   31          29.444          31.077          34.679          36.209          36.211          41.645          46.173          46.683          47.500          53.632          57.951          60.267          61.957          62.859          68.336          69.610          71.723          72.419          74.688          75.421          78.697          80.330          83.389          85.934          86.892          88.866          91.847          93.030          96.037          98.626          99.779         100.945         102.130         104.176         110.160         110.270         123.534         130.050         130.341         132.586         139.249         140.108         146.524         146.773         161.254         163.837         170.386         172.754
   32          29.234          30.916          34.421          36.032          36.080          41.429          46.114          46.581          47.110          53.496          57.734          60.366          61.974          62.925          68.412          69.726          71.754          72.280          74.582          75.613          78.623          80.074          83.252          86.010          86.830          88.866          92.001          93.055          95.990          98.680          99.742         101.056         102.162         104.251         110.114         110.376         123.784         130.295         130.327         132.571         139.329         140.178         146.513         146.767         161.195         163.866         170.302         172.745
   33          29.014          30.744          34.162          35.848          35.951          41.214          46.032          46.475          46.749          53.348          57.507          60.446          62.017          62.981          68.481          69.831          71.784          72.150          74.483          75.805          78.552          79.827          83.122          86.051          86.805          88.864          92.152          93.077          95.937          98.648          99.762         101.155         102.217         104.347         110.070         110.485         124.036         130.250         130.591         132.565         139.411         140.249         146.501         146.760         161.137         163.894         170.218         172.735
   34          28.784          30.560          33.904          35.659          35.820          41.001          45.889          46.365          46.456          53.187          57.272          60.507          62.090          63.027          68.541          69.923          71.813          72.034          74.392          75.995          78.484          79.593          82.999          86.044          86.826          88.858          92.302          93.095          95.878          98.535          99.840         101.243         102.290         104.461         110.028         110.598         124.290         130.208         130.836         132.572         139.495         140.320         146.490         146.753         161.078         163.922         170.133         172.723
   35          28.543          30.363          33.646          35.467          35.687          40.790          45.639          46.251          46.277          53.011          57.028          60.549          62.191          63.064          68.593          69.998          71.843          71.934          74.308          76.179          78.418          79.376          82.882          85.995          86.891          88.849          92.449          93.109          95.814          98.365          99.956         101.323         102.376         104.590         109.988         110.714         124.545         130.168         131.054         132.603         139.580         140.391         146.479         146.746         161.018         163.950         170.048         172.710
   36          28.292          30.153          33.389          35.273          35.550          40.583          45.312          46.134          46.185          52.821          56.777          60.575          62.317          63.092          68.636          70.052          71.854          71.872          74.232          76.353          78.354          79.179          82.774          85.917          86.985          88.837          92.593          93.119          95.745          98.159         100.091         101.396         102.473         104.730         109.951         110.834         124.800         130.131         131.233         132.666         139.668         140.463         146.467         146.739         160.959         163.977         169.961         172.695
   37          28.031          29.929          33.134          35.077          35.408          40.380          44.958          46.012          46.130          52.615          56.519          60.592          62.464          63.111          68.672          70.084          71.794          71.901          74.162          76.513          78.288          79.013          82.673          85.821          87.097          88.823          92.732          93.124          95.674          97.933         100.236         101.464         102.578         104.880         109.917         110.959         125.055         130.097         131.365         132.772         139.757         140.535         146.456         146.731         160.899         164.004         169.874         172.680
   38          27.759          29.691          32.880          34.879          35.261          40.181          44.598          45.887          46.092          52.393          56.254          60.601          62.628          63.120          68.700          70.090          71.756          71.930          74.099          76.654          78.216          78.886          82.580          85.716          87.219          88.806          92.867          93.125          95.600          97.694         100.383         101.530         102.689         105.036         109.886         111.087         125.308         130.066         131.447         132.923         139.848         140.607         146.445         146.724         160.838         164.031         169.786         172.663
   39          27.478          29.438          32.626          34.682          35.108          39.987          44.242          45.757          46.062          52.156          55.984          60.609          62.804          63.121          68.719          70.073          71.736          71.958          74.041          76.769          78.135          78.808          82.495          85.606          87.347          88.786          92.995          93.120          95.525          97.447         100.529         101.594         102.805         105.197         109.859         111.221         125.558         130.040         131.484         133.113         139.940         140.679         146.434         146.716         160.778         164.057         169.697         172.644
   40          27.186          29.169          32.374          34.486          34.947          39.799          43.893          45.623          46.039          51.903          55.708          60.617          62.990          63.112          68.731          70.034          71.731          71.987          73.990          76.854          78.048          78.784          82.418          85.493          87.479          88.764          93.111          93.115          95.449          97.198         100.673         101.657         102.925         105.359         109.836         111.358         125.805         130.018         131.487         133.333         140.033         140.751         146.423         146.708         160.717         164.083         169.608         172.625
   41          26.884          28.885          32.121          34.291          34.778          39.617          43.555          45.484          46.020          51.634          55.428          60.629          63.096          63.184          68.735          69.978          71.735          72.015          73.943          76.906          77.962          78.809          82.349          85.378          87.612          88.739          93.097          93.227          95.374          96.950         100.813         101.720         103.047         105.522         109.817         111.501         126.047         130.002         131.465         133.572         140.127         140.823         146.412         146.700         160.655         164.108         169.519         172.604
   42          26.573          28.584          31.867          34.098          34.601          39.440          43.228          45.341          46.006          51.352          55.143          60.644          63.071          63.382          68.731          69.907          71.742          72.044          73.901          76.928          77.885          78.876          82.287          85.263          87.746          88.713          93.077          93.327          95.299          96.706         100.950         101.784         103.171         105.685         109.802         111.649         126.283         129.993         131.426         133.824         140.221         140.895         146.401         146.692         160.594         164.133         169.429         172.582
   43          26.252          28.268          31.611          33.909          34.416          39.269          42.914          45.192          45.995          51.056          54.855          60.665          63.039          63.583          68.721          69.826          71.746          72.073          73.864          76.925          77.819          78.976          82.234          85.149          87.881          88.685          93.052          93.414          95.227          96.471         101.082         101.849         103.295         105.845         109.792         111.802         126.512         129.992         131.374         134.082         140.316         140.967         146.391         146.683         160.532         164.157         169.338         172.559
   44          25.923          27.937          31.351          33.723          34.222          39.103          42.613          45.038          45.988          50.748          54.565          60.692          62.999          63.787          68.704          69.736          71.742          72.102          73.831          76.909          77.765          79.100          82.188          85.037          88.014          88.655          93.022          93.482          95.157          96.248         101.209         101.916         103.421         106.002         109.786         111.959         126.731         130.000         131.313         134.346         140.412         141.038         146.380         146.675         160.470         164.181         169.247         172.535
   45          25.585          27.589          31.087          33.542          34.021          38.944          42.328          44.879          45.983          50.428          54.273          60.724          62.952          63.992          68.680          69.641          71.727          72.132          73.801          76.888          77.723          79.240          82.148          84.926          88.147          88.624          92.986          93.528          95.090          96.043         101.332         101.984         103.546         106.155         109.785         112.122         126.940         130.019         131.245         134.611         140.508         141.109         146.370         146.667         160.408         164.204         169.156         172.511
   46          25.238          27.227          30.818          33.364          33.812          38.790          42.057          44.713          45.982          50.099          53.980          60.763          62.899          64.196          68.649          69.541          71.697          72.163          73.775          76.870          77.689          79.392          82.116          84.817          88.278          88.592          92.946          93.545          95.027          95.863         101.450         102.054         103.671         106.304         109.788         112.289         127.134         130.052         131.170         134.877         140.604         141.180         146.359         146.659         160.346         164.227         169.065         172.485
   47          24.884          26.850          30.540          33.191          33.596          38.641          41.802          44.540          45.985          49.762          53.687          60.808          62.839          64.400          68.613          69.438          71.652          72.194          73.752          76.861          77.664          79.549          82.090          84.711          88.407          88.559          92.902          93.527          94.967          95.714         101.563         102.125         103.795         106.448         109.797         112.461         127.313         130.099         131.091         135.142         140.700         141.251         146.349         146.651         160.284         164.250         168.973         172.458
   48          24.522          26.459          30.253          33.023          33.376          38.498          41.561          44.359          45.990          49.418          53.394          60.858          62.774          64.602          68.572          69.332          71.590          72.227          73.732          76.864          77.647          79.709          82.070          84.608          88.525          88.534          92.853          93.469          94.911          95.603         101.672         102.198         103.917         106.588         109.810         112.637         127.474         130.164         131.007         135.407         140.796         141.321         146.339         146.643         160.222         164.272         168.882         172.430
   49          24.153          26.055          29.955          32.859          33.152          38.360          41.335          44.170          45.998          49.069          53.102          60.914          62.703          64.801          68.526          69.223          71.511          72.260          73.715          76.879          77.639          79.870          82.056          84.508          88.490          88.658          92.800          93.369          94.858          95.529         101.777         102.273         104.039         106.723         109.828         112.818         127.616         130.247         130.920         135.670         140.892         141.390         146.329         146.635         160.160         164.293         168.790         172.401
   50          23.777          25.638          29.644          32.700          32.927          38.226          41.124          43.972          46.009          48.717          52.813          60.975          62.627          64.998          68.475          69.112          71.416          72.294          73.700          76.906          77.641          80.028          82.047          84.412          88.456          88.779          92.744          93.232          94.810          95.492         101.878         102.349         104.158         106.852         109.851         113.002         127.737         130.350         130.829         135.931         140.988         141.459         146.320         146.627         160.097         164.314         168.698         172.372
   51          23.394          25.208          29.319          32.545          32.702          38.098          40.926          43.764          46.022          48.363          52.527          61.041          62.547          65.190          68.421          68.999          71.307          72.329          73.688          76.943          77.654          80.183          82.042          84.321          88.421          88.897          92.685          93.061          94.764          95.485         101.975         102.425         104.276         106.977         109.879         113.190         127.837         130.472         130.736         136.189         141.083         141.527         146.310         146.619         160.035         164.335         168.607         172.342
   52          23.005          24.768          28.978          32.395          32.479          37.975          40.740          43.544          46.037          48.011          52.245          61.112          62.461          65.377          68.364          68.882          71.185          72.365          73.679          76.985          77.681          80.334          82.041          84.234          88.386          89.011          92.624          92.866          94.723          95.501         102.069         102.504         104.391         107.096         109.911         113.381         127.918         130.612         130.640         136.445         141.178         141.594         146.301         146.612         159.973         164.355         168.516         172.311
   53          22.611          24.317          28.620          32.248          32.260          37.856          40.566          43.313          46.055          47.662          51.969          61.186          62.372          65.559          68.304          68.764          71.052          72.402          73.672          77.030          77.724          80.478          82.044          84.151          88.353          89.121          92.561          92.653          94.685          95.534         102.159         102.582         104.504         107.211         109.948         113.575         127.980         130.541         130.769         136.698         141.272         141.660         146.292         146.604         159.911         164.374         168.425         172.280
   54          22.210          23.856          28.244          32.045          32.105          37.741          40.401          43.068          46.074          47.317          51.699          61.265          62.279          65.734          68.243          68.642          70.911          72.439          73.669          77.073          77.785          80.617          82.050          84.074          88.320          89.226          92.427          92.497          94.649          95.579         102.247         102.662         104.615         107.321         109.988         113.771         128.025         130.440         130.941         136.948         141.365         141.726         146.283         146.597         159.849         164.393         168.334         172.247
   55          21.805          23.386          27.851          31.837          31.966          37.630          40.246          42.810          46.094          46.979          51.437          61.346          62.183          65.901          68.183          68.518          70.762          72.476          73.668          77.113          77.865          80.747          82.059          84.003          88.288          89.326          92.193          92.432          94.617          95.631         102.331         102.742         104.723         107.427         110.033         113.970         128.057         130.337         131.125         137.195         141.458         141.790         146.274         146.590         159.787         164.411         168.244         172.215
   56          21.394          22.907          27.440          31.636          31.830          37.523          40.099          42.536          46.115          46.649          51.183          61.431          62.083          66.058          68.124          68.390          70.607          72.512          73.672          77.148          77.963          80.870          82.069          83.937          88.258          89.420          91.954          92.366          94.588          95.688         102.414         102.823         104.829         107.529         110.082         114.171         128.077         130.232         131.318         137.439         141.549         141.853         146.265         146.584         159.725         164.429         168.155         172.182
   57          20.978          22.421          27.011          31.441          31.697          37.420          39.959          42.248          46.136          46.330          50.940          61.519          61.980          66.203          68.069          68.260          70.449          72.548          73.679          77.179          78.078          80.985          82.082          83.877          88.229          89.508          91.713          92.300          94.561          95.748         102.494         102.904         104.932         107.626         110.134         114.373         128.087         130.125         131.518         137.678         141.640         141.916         146.257         146.577         159.664         164.446         168.066         172.148
   58          20.558          21.927          26.565          31.254          31.567          37.321          39.824          41.944          46.021          46.155          50.708          61.608          61.875          66.335          68.020          68.126          70.289          72.581          73.692          77.207          78.206          81.090          82.095          83.824          88.202          89.588          91.473          92.233          94.537          95.809         102.572         102.985         105.032         107.720         110.189         114.576         128.090         130.016         131.725         137.915         141.729         141.977         146.248         146.571         159.603         164.462         167.978         172.114
   59          20.133          21.427          26.103          31.075          31.440          37.224          39.694          41.625          45.724          46.172          50.490          61.701          61.767          66.449          67.981          67.989          70.127          72.611          73.710          77.233          78.345          81.187          82.109          83.778          88.178          89.658          91.236          92.166          94.515          95.871         102.649         103.067         105.129         107.810         110.248         114.779         128.085         129.906         131.935         138.147         141.817         142.036         146.240         146.565         159.542         164.478         167.890         172.080
   60          19.704          20.921          25.625          30.902          31.314          37.131          39.567          41.292          45.440          46.186          50.287          61.656          61.795          66.543          67.849          67.955          69.965          72.637          73.735          77.258          78.494          81.273          82.123          83.738          88.156          89.716          91.007          92.100          94.495          95.932         102.725         103.148         105.224         107.898         110.309         114.984         128.075         129.794         132.148         138.376         141.904         142.095         146.232         146.560         159.481         164.493         167.804         172.045
   61          19.271          20.409          25.133          30.737          31.191          37.039          39.443          40.946          45.168          46.195          50.101          61.543          61.891          66.612          67.705          67.946          69.804          72.658          73.768          77.283          78.650          81.351          82.138          83.705          88.136          89.755          90.792          92.033          94.478          95.993         102.799         103.229         105.315         107.982         110.373         115.188         128.061         129.681         132.362         138.600         141.990         142.152         146.224         146.555         159.421         164.507         167.718         172.010
   62          18.834          19.892          24.627          30.578          31.069          36.950          39.321          40.589          44.907          46.197          49.933          61.428          61.988          66.654          67.559          67.957          69.645          72.672          73.808          77.309          78.813          81.418          82.152          83.679          88.119          89.765          90.602          91.967          94.464          96.053         102.873         103.309         105.404         108.063         110.439         115.392         128.044         129.567         132.577         138.821         142.074         142.208         146.217         146.550         159.362         164.521         167.634         171.975
   63          18.393          19.371          24.108          30.425          30.948          36.861          39.200          40.224          44.658          46.193          49.786          61.311          62.087          66.670          67.411          67.987          69.488          72.681          73.858          77.337          78.980          81.476          82.166          83.660          88.105          89.727          90.456          91.900          94.452          96.111         102.946         103.389         105.489         108.141         110.507         115.596         128.023         129.451         132.792         139.037         142.157         142.263         146.210         146.546         159.303         164.533         167.550         171.940
   64          17.949          18.846          23.578          30.278          30.828          36.771          39.080          39.853          44.418          46.179          49.661          61.192          62.186          66.662          67.259          68.035          69.333          72.682          73.916          77.366          79.150          81.523          82.181          83.648          88.093          89.626          90.368          91.834          94.442          96.167         103.019         103.469         105.571         108.217         110.576         115.799         128.000         129.334         133.006         139.250         142.238         142.315         146.202         146.542         159.244         164.545         167.468         171.905
   65          17.501          18.318          23.036          30.137          30.708          36.679          38.960          39.481          44.189          46.156          49.559          61.071          62.287          66.633          67.106          68.098          69.180          72.676          73.983          77.396          79.324          81.562          82.195          83.642          88.084          89.470          90.332          91.767          94.434          96.223         103.091         103.547         105.650         108.291         110.647         116.001         127.975         129.216         133.218         139.457         142.318         142.367         146.195         146.538         159.186         164.556         167.388         171.869
   66          17.050          17.786          22.485          30.001          30.589          36.582          38.839          39.112          43.968          46.122          49.481          60.949          62.388          66.588          66.952          68.170          69.031          72.663          74.058          77.428          79.499          81.591          82.209          83.641          88.078          89.282          90.326          91.700          94.429          96.276         103.164         103.625         105.727         108.363         110.719         116.202         127.949         129.098         133.428         139.661         142.396         142.417         146.188         146.535         159.129         164.567         167.308         171.834
   67          16.596          17.252          21.924          29.869          30.469          36.476          38.718          38.751          43.754          46.078          49.427          60.825          62.490          66.531          66.796          68.248          68.885          72.643          74.141          77.463          79.676          81.610          82.224          83.647          88.075          89.077          90.333          91.633          94.426          96.328         103.236         103.702         105.799         108.433         110.792         116.402         127.922         128.978         133.636         139.860         142.465         142.472         146.182         146.532         159.073         164.576         167.231         171.799
   68          16.138          16.716          21.354          29.742          30.348          36.356          38.406          38.597          43.548          46.023          49.397          60.699          62.593          66.465          66.640          68.329          68.743          72.617          74.231          77.499          79.854          81.621          82.240          83.657          88.074          88.866          90.344          91.565          94.426          96.378         103.308         103.778         105.869         108.501         110.865         116.599         127.893         128.858         133.842         140.055         142.512         142.546         146.175         146.530         159.017         164.584         167.155         171.764
   69          15.678          16.178          20.776          29.619          30.226          36.214          38.086          38.474          43.347          45.959          49.390          60.572          62.695          66.394          66.483          68.411          68.604          72.586          74.326          77.537          80.032          81.624          82.256          83.672          88.075          88.652          90.355          91.496          94.428          96.427         103.381         103.852         105.936         108.567         110.939         116.795         127.864         128.737         134.044         140.244         142.557         142.619         146.169         146.527         158.962         164.592         167.081         171.730
   70          15.215          15.638          20.190          29.501          30.101          36.042          37.802          38.351          43.152          45.888          49.404          60.444          62.798          66.319          66.327          68.468          68.493          72.549          74.428          77.577          80.211          81.618          82.273          83.691          88.078          88.439          90.362          91.426          94.433          96.475         103.453         103.925         105.999         108.632         111.013         116.989         127.835         128.615         134.243         140.430         142.600         142.690         146.162         146.525         158.908         164.599         167.009         171.695
   71          14.750          15.098          19.597          29.386          29.974          35.834          37.563          38.227          42.962          45.810          49.437          60.315          62.901          66.171          66.241          68.335          68.573          72.507          74.534          77.619          80.389          81.605          82.292          83.713          88.084          88.228          90.365          91.355          94.439          96.521         103.526         103.997         106.060         108.695         111.086         117.181         127.805         128.494         134.438         140.610         142.642         142.759         146.156         146.524         158.854         164.604         166.939         171.661
   72          14.282          14.558          18.997          29.274          29.843          35.587          37.371          38.103          42.776          45.727          49.488          60.184          63.003          66.017          66.162          68.206          68.650          72.461          74.643          77.664          80.566          81.585          82.313          83.738          88.020          88.091          90.364          91.283          94.448          96.566         103.599         104.067         106.117         108.757         111.159         117.370         127.775         128.372         134.629         140.786         142.683         142.825         146.150         146.523         158.802         164.609         166.871         171.628
   73          13.811          14.017          18.391          29.166          29.707          35.307          37.224          37.978          42.594          45.642          49.554          60.052          63.105          65.865          66.082          68.080          68.725          72.410          74.757          77.709          80.741          81.559          82.335          83.766          87.816          88.100          90.358          91.210          94.459          96.610         103.672         104.136         106.171         108.817         111.232         117.557         127.745         128.250         134.816         140.956         142.721         142.890         146.144         146.522         158.751         164.612         166.805         171.594
   74          13.338          13.477          17.779          29.062          29.567          35.003          37.114          37.853          42.416          45.555          49.634          59.920          63.207          65.714          66.002          67.958          68.796          72.356          74.872          77.757          80.914          81.528          82.360          83.796          87.616          88.111          90.346          91.136          94.472          96.652         103.745         104.202         106.221         108.876         111.304         117.741         127.715         128.127         134.998         141.122         142.758         142.953         146.139         146.521         158.701         164.615         166.741         171.562
   75          12.863          12.937          17.162          28.960          29.420          34.686          37.033          37.729          42.240          45.467          49.726          59.786          63.308          65.566          65.923          67.839          68.864          72.299          74.990          77.807          81.084          81.493          82.386          83.828          87.421          88.123          90.329          91.060          94.487          96.693         103.818         104.267         106.269         108.933         111.375         117.922         127.685         128.005         135.176         141.283         142.793         143.014         146.133         146.521         158.652         164.616         166.680         171.530
   76          12.385          12.398          16.540          28.862          29.266          34.364          36.975          37.606          42.068          45.381          49.827          59.651          63.408          65.421          65.844          67.723          68.929          72.239          75.109          77.858          81.242          81.462          82.414          83.861          87.230          88.136          90.306          90.982          94.504          96.734         103.891         104.331         106.313         108.989         111.444         118.100         127.656         127.884         135.349         141.438         142.827         143.072         146.127         146.521         158.604         164.617         166.622         171.498
   77          11.861          11.906          15.912          28.766          29.103          34.045          36.934          37.483          41.899          45.296          49.938          59.516          63.507          65.280          65.768          67.611          68.990          72.177          75.229          77.911          81.335          81.489          82.444          83.895          87.046          88.150          90.279          90.903          94.522          96.773         103.964         104.392         106.354         109.044         111.513         118.275         127.626         127.763         135.517         141.589         142.859         143.129         146.122         146.521         158.557         164.616         166.565         171.468
   78          11.325          11.424          15.280          28.674          28.932          33.733          36.907          37.362          41.733          45.213          50.057          59.380          63.605          65.142          65.693          67.503          69.048          72.112          75.349          77.966          81.314          81.624          82.475          83.929          86.867          88.166          90.246          90.823          94.541          96.811         104.036         104.451         106.393         109.098         111.579         118.446         127.598         127.642         135.679         141.734         142.889         143.183         146.116         146.522         158.512         164.615         166.512         171.438
   79          10.792          10.941          14.644          28.585          28.751          33.433          36.891          37.243          41.569          45.133          50.182          59.244          63.702          65.008          65.619          67.397          69.103          72.046          75.469          78.022          81.264          81.781          82.508          83.965          86.694          88.182          90.210          90.741          94.562          96.848         104.108         104.508         106.428         109.150         111.644         118.614         127.523         127.570         135.836         141.874         142.918         143.235         146.111         146.522         158.468         164.612         166.461         171.409
   80          10.261          10.456          14.004          28.498          28.561          33.147          36.885          37.127          41.407          45.056          50.312          59.107          63.797          64.878          65.549          67.296          69.154          71.979          75.587          78.080          81.205          81.939          82.542          84.000          86.527          88.199          90.169          90.659          94.583          96.884         104.179         104.562         106.460         109.200         111.708         118.778         127.404         127.543         135.988         142.008         142.945         143.285         146.106         146.523         158.426         164.609         166.413         171.381
   81           9.733           9.969          13.360          28.360          28.415          32.879          36.887          37.013          41.249          44.983          50.446          58.970          63.890          64.753          65.480          67.198          69.202          71.910          75.705          78.139          81.143          82.096          82.577          84.036          86.367          88.217          90.124          90.574          94.605          96.918         104.249         104.615         106.489         109.250         111.769         118.938         127.287         127.516         136.134         142.137         142.971         143.333         146.101         146.524         158.385         164.604         166.368         171.353
   82           9.208           9.480          12.713          28.150          28.335          32.630          36.897          36.903          41.092          44.913          50.584          58.834          63.981          64.632          65.414          67.105          69.247          71.841          75.821          78.199          81.076          82.249          82.613          84.071          86.214          88.236          90.076          90.489          94.628          96.952         104.318         104.665         106.516         109.297         111.828         119.094         127.171         127.490         136.274         142.260         142.995         143.378         146.095         146.525         158.346         164.599         166.325         171.327
   83           8.686           8.990          12.062          27.932          28.257          32.400          36.796          36.913          40.939          44.848          50.725          58.697          64.071          64.517          65.351          67.015          69.289          71.771          75.934          78.261          81.007          82.399          82.648          84.106          86.069          88.256          90.025          90.403          94.650          96.984         104.385         104.713         106.539         109.343         111.885         119.246         127.058         127.466         136.407         142.378         143.018         143.421         146.090         146.526         158.308         164.593         166.285         171.302
   84           8.169           8.499          11.408          27.706          28.183          32.190          36.693          36.936          40.788          44.785          50.868          58.561          64.158          64.406          65.291          66.929          69.328          71.702          76.045          78.324          80.936          82.544          82.684          84.140          85.931          88.277          89.971          90.316          94.673          97.015         104.452         104.759         106.560         109.387         111.939         119.393         126.946         127.442         136.535         142.490         143.039         143.462         146.086         146.527         158.272         164.586         166.248         171.277
   85           7.655           8.006          10.751          27.476          28.112          31.999          36.595          36.964          40.640          44.727          51.011          58.426          64.242          64.301          65.234          66.847          69.365          71.634          76.153          78.389          80.862          82.685          82.718          84.174          85.802          88.299          89.916          90.228          94.696          97.045         104.516         104.802         106.578         109.430         111.991         119.535         126.837         127.419         136.656         142.596         143.059         143.501         146.081         146.529         158.237         164.579         166.213         171.254
   86           7.145           7.512          10.092          27.242          28.045          31.827          36.501          36.997          40.495          44.673          51.155          58.293          64.202          64.323          65.181          66.770          69.399          71.566          76.257          78.455          80.787          82.751          82.821          84.207          85.681          88.323          89.859          90.140          94.719          97.073         104.579         104.842         106.594         109.470         112.041         119.672         126.730         127.397         136.770         142.697         143.078         143.537         146.076         146.530         158.205         164.571         166.181         171.232
   87           6.640           7.016           9.430          27.008          27.981          31.673          36.412          37.035          40.353          44.622          51.297          58.161          64.109          64.400          65.130          66.696          69.430          71.500          76.357          78.522          80.710          82.782          82.951          84.239          85.568          88.347          89.801          90.052          94.741          97.100         104.639         104.880         106.608         109.509         112.087         119.803         126.627         127.376         136.878         142.791         143.095         143.571         146.071         146.531         158.174         164.563         166.152         171.211
   88           6.140           6.520           8.766          26.777          27.920          31.535          36.328          37.077          40.215          44.576          51.438          58.032          64.021          64.474          65.083          66.628          69.459          71.436          76.452          78.590          80.632          82.811          83.076          84.269          85.465          88.373          89.744          89.963          94.762          97.125         104.697         104.916         106.619         109.545         112.131         119.928         126.527         127.357         136.979         142.879         143.110         143.602         146.067         146.532         158.145         164.554         166.125         171.192
   89           5.644           6.022           8.100          26.550          27.864          31.412          36.250          37.123          40.080          44.533          51.577          57.905          63.939          64.544          65.040          66.564          69.485          71.374          76.543          78.659          80.553          82.838          83.193          84.298          85.372          88.401          89.687          89.875          94.782          97.149         104.753         104.949         106.628         109.579         112.172         120.048         126.432         127.339         137.074         142.962         143.125         143.632         146.062         146.534         158.118         164.546         166.100         171.174
   90           5.153           5.524           7.431          26.331          27.811          31.304          36.178          37.172          39.949          44.493          51.712          57.783          63.864          64.609          65.001          66.504          69.509          71.315          76.628          78.729          80.474          82.861          83.304          84.324          85.288          88.431          89.631          89.788          94.801          97.171         104.805         104.979         106.636         109.611         112.210         120.160         126.341         127.322         137.161         143.038         143.138         143.659         146.058         146.535         158.093         164.537         166.078         171.157
   91           4.666           5.024           6.761          26.122          27.762          31.208          36.111          37.224          39.823          44.458          51.842          57.665          63.794          64.668          64.967          66.450          69.531          71.260          76.707          78.800          80.394          82.881          83.408          84.349          85.214          88.462          89.576          89.701          94.819          97.191         104.854         105.007         106.641         109.641         112.245         120.266         126.255         127.306         137.240         143.108         143.150         143.683         146.054         146.536         158.070         164.529         166.059         171.141
   92           4.184           4.524           6.090          25.925          27.718          31.124          36.050          37.278          39.702          44.426          51.966          57.552          63.731          64.719          64.939          66.400          69.550          71.208          76.781          78.871          80.314          82.899          83.504          84.371          85.150          88.496          89.525          89.615          94.836          97.210         104.900         105.032         106.646         109.668         112.277         120.363         126.174         127.292         137.313         143.161         143.171         143.705         146.051         146.537         158.049         164.521         166.041         171.127
   93           3.706           4.023           5.417          25.743          27.677          31.052          35.995          37.334          39.587          44.397          52.083          57.446          63.675          64.760          64.921          66.355          69.568          71.160          76.848          78.944          80.233          82.913          83.591          84.390          85.095          88.531          89.476          89.531          94.852          97.227         104.942         105.054         106.649         109.693         112.306         120.453         126.100         127.279         137.378         143.170         143.229         143.725         146.047         146.538         158.031         164.514         166.026         171.114
   94           3.233           3.522           4.742          25.577          27.641          30.989          35.947          37.390          39.479          44.372          52.191          57.348          63.624          64.784          64.917          66.316          69.583          71.116          76.908          79.017          80.153          82.924          83.670          84.407          85.050          88.570          89.431          89.449          94.865          97.242         104.980         105.074         106.651         109.714         112.331         120.534         126.033         127.267         137.436         143.178         143.279         143.743         146.044         146.539         158.014         164.507         166.012         171.103
   95           2.763           3.020           4.067          25.430          27.610          30.937          35.905          37.445          39.379          44.350          52.289          57.259          63.581          64.790          64.930          66.281          69.596          71.078          76.961          79.091          80.073          82.932          83.739          84.420          85.014          88.611          89.369          89.391          94.878          97.255         105.013         105.091         106.652         109.734         112.353         120.605         125.973         127.257         137.486         143.186         143.323         143.758         146.041         146.539         157.999         164.501         166.001         171.093
   96           2.297           2.517           3.391          25.302          27.583          30.893          35.869          37.497          39.288          44.332          52.375          57.180          63.544          64.783          64.952          66.252          69.607          71.044          77.006          79.164          79.993          82.938          83.798          84.431          84.986          88.654          89.291          89.356          94.888          97.266         105.042         105.106         106.653         109.750         112.372         120.667         125.921         127.249         137.529         143.192         143.361         143.770         146.039         146.540         157.987         164.495         165.991         171.085
   97           1.834           2.014           2.713          25.196          27.561          30.857          35.839          37.545          39.209          44.317          52.449          57.113          63.514          64.774          64.975          66.228          69.616          71.017          77.044          79.238          79.916          82.942          83.848          84.439          84.965          88.701          89.216          89.326          94.897          97.275         105.066         105.118         106.653         109.763         112.388         120.718         125.878         127.242         137.564         143.197         143.392         143.781         146.037         146.541         157.977         164.491         165.983         171.078
   98           1.373           1.511           2.036          25.112          27.544          30.830          35.816          37.586          39.143          44.306          52.508          57.059          63.490          64.765          64.995          66.209          69.623          70.995          77.073          79.310          79.840          82.945          83.886          84.444          84.950          88.749          89.145          89.303          94.903          97.282         105.085         105.127         106.653         109.774         112.400         120.758         125.843         127.236         137.591         143.200         143.416         143.789         146.035         146.541         157.969         164.487         165.977         171.073
   99           0.914           1.007           1.357          25.052          27.532          30.811          35.800          37.618          39.094          44.298          52.551          57.020          63.473          64.758          65.010          66.196          69.628          70.979          77.094          79.377          79.770          82.947          83.914          84.448          84.940          88.799          89.079          89.286          94.908          97.287         105.098         105.134         106.652         109.781         112.408         120.788         125.819         127.232         137.611         143.203         143.433         143.795         146.034         146.541         157.963         164.485         165.973         171.069
  100           0.457           0.504           0.679          25.015          27.524          30.800          35.790          37.638          39.063          44.293          52.577          56.996          63.463          64.753          65.019          66.187          69.631          70.969          77.107          79.434          79.711          82.947          83.931          84.450          84.935          88.846          89.022          89.275          94.911          97.290         105.107         105.138         106.652         109.786         112.413         120.805         125.804         127.230         137.622         143.205         143.443         143.798         146.033         146.542         157.960         164.483         165.971         171.066
  101         -31.194           0.000           0.000           0.000           0.000           0.000           0.000          33.041          38.255          44.553          45.150          51.864          56.684          58.066          59.147          60.812          69.965          73.048          73.165          75.293          76.745          77.999          80.469          84.678          87.004          91.189          93.164          95.158          98.791          99.364         105.013         107.757         110.071         111.375         115.495         127.119         128.047         134.979         137.466         140.090         141.784         145.943         147.108         152.554         158.334         164.580         166.374         171.255
  102           0.273           0.522           0.748          25.001          27.519          30.800          35.741          37.686          39.052          44.292          52.574          56.988          63.448          64.753          65.030          66.184          69.632          70.966          77.117          79.459          79.686          82.947          83.932          84.455          84.934          88.870          88.968          89.301          94.912          97.291         105.107         105.138         106.652         109.777         112.426         120.810         125.798         127.229         137.626         143.205         143.446         143.799         146.033         146.542         157.959         164.482         165.970         171.066
  103           0.545           1.044           1.495          24.994          27.510          30.812          35.613          37.797          39.050          44.294          52.539          56.988          63.415          64.757          65.052          66.182          69.633          70.966          77.133          79.461          79.686          82.943          83.919          84.466          84.939          88.870          88.910          89.371          94.912          97.292         105.101         105.134         106.653         109.746         112.460         120.807         125.797         127.230         137.626         143.206         143.446         143.799         146.033         146.542         157.959         164.482         165.969         171.066
  104           0.817           1.566           2.242          24.983          27.495          30.832          35.426          37.956          39.047          44.298          52.481          56.988          63.362          64.764          65.088          66.178          69.634          70.966          77.161          79.463          79.685          82.938          83.900          84.482          84.947          88.840          88.870          89.459          94.911          97.293         105.091         105.129         106.654         109.696         112.513         120.801         125.794         127.230         137.627         143.207         143.446         143.799         146.033         146.542         157.960         164.482         165.968         171.066
  105           1.089           2.088           2.986          24.968          27.477          30.859          35.197          38.146          39.043          44.303          52.400          56.989          63.293          64.773          65.134          66.172          69.636          70.965          77.198          79.466          79.685          82.930          83.875          84.502          84.960          88.768          88.870          89.555          94.911          97.294         105.077         105.120         106.656         109.631         112.585         120.794         125.791         127.231         137.627         143.208         143.446         143.799         146.032         146.542         157.961         164.482         165.967         171.066
  106           1.359           2.609           3.729          24.948          27.454          30.893          34.940          38.352          39.037          44.310          52.296          56.989          63.210          64.784          65.188          66.165          69.638          70.965          77.246          79.469          79.684          82.920          83.847          84.523          84.977          88.697          88.869          89.658          94.910          97.296         105.059         105.110         106.658         109.551         112.672         120.784         125.787         127.232         137.627         143.210         143.446         143.799         146.032         146.542         157.962         164.482         165.966         171.067
  107           1.628           3.129           4.469          24.922          27.430          30.933          34.664          38.566          39.030          44.317          52.170          56.990          63.117          64.797          65.247          66.156          69.640          70.964          77.303          79.474          79.684          82.908          83.817          84.542          85.000          88.628          88.869          89.766          94.909          97.298         105.036         105.097         106.661         109.461         112.771         120.772         125.783         127.233         137.627         143.212         143.445         143.799         146.031         146.542         157.963         164.482         165.964         171.067
  108           1.895           3.649           5.205          24.891          27.404          30.978          34.374          38.784          39.022          44.326          52.023          56.990          63.016          64.811          65.308          66.146          69.643          70.964          77.369          79.479          79.683          82.895          83.786          84.559          85.030          88.561          88.868          89.877          94.907          97.301         105.009         105.083         106.664         109.364         112.881         120.758         125.777         127.235         137.628         143.215         143.445         143.799         146.031         146.542         157.965         164.481         165.963         171.068
  109           2.161           4.167           5.938          24.854          27.379          31.028          34.072          39.002          39.012          44.335          51.855          56.991          62.910          64.827          65.371          66.135          69.646          70.963          77.443          79.485          79.682          82.879          83.754          84.571          85.065          88.498          88.867          89.992          94.906          97.304         104.977         105.066         106.668         109.260         112.999         120.742         125.771         127.236         137.628         143.218         143.444         143.799         146.030         146.543         157.966         164.481         165.961         171.068
  110           2.425           4.685           6.666          24.811          27.357          31.081          33.760          39.000          39.219          44.344          51.668          56.992          62.799          64.845          65.434          66.122          69.649          70.962          77.525          79.491          79.681          82.862          83.723          84.580          85.106          88.437          88.867          90.110          94.904          97.307         104.941         105.047         106.671         109.152         113.123         120.724         125.764         127.238         137.629         143.221         143.444         143.798         146.029         146.543         157.968         164.481         165.958         171.069
  111           2.686           5.202           7.388          24.761          27.338          31.137          33.440          38.987          39.432          44.353          51.462          56.993          62.686          64.864          65.496          66.108          69.652          70.961          77.613          79.499          79.680          82.843          83.693          84.584          85.153          88.380          88.866          90.231          94.903          97.311         104.900         105.027         106.675         109.043         113.252         120.704         125.756         127.240         137.629         143.224         143.443         143.798         146.029         146.543         157.970         164.480         165.956         171.070
  112           2.945           5.717           8.105          24.704          27.324          31.196          33.114          38.972          39.642          44.362          51.238          56.994          62.572          64.884          65.555          66.093          69.656          70.960          77.706          79.507          79.678          82.822          83.663          84.585          85.205          88.326          88.865          90.354          94.901          97.315         104.854         105.005         106.679         108.933         113.384         120.682         125.748         127.242         137.630         143.228         143.442         143.798         146.028         146.544         157.973         164.480         165.953         171.071
  113           3.201           6.230           8.814          24.640          27.316          31.256          32.780          38.955          39.847          44.370          50.999          56.995          62.457          64.905          65.613          66.077          69.660          70.959          77.805          79.515          79.677          82.800          83.636          84.581          85.261          88.275          88.864          90.479          94.899          97.319         104.803         104.981         106.684         108.823         113.518         120.658         125.739         127.244         137.630         143.232         143.442         143.797         146.027         146.544         157.975         164.479         165.950         171.072
  114           3.453           6.742           9.516          24.569          27.317          31.317          32.442          38.936          40.048          44.376          50.744          56.997          62.342          64.928          65.668          66.060          69.664          70.958          77.907          79.524          79.675          82.777          83.611          84.575          85.320          88.226          88.863          90.607          94.897          97.324         104.748         104.956         106.688         108.716         113.655         120.633         125.729         127.246         137.631         143.237         143.441         143.797         146.026         146.544         157.978         164.479         165.947         171.073
  115           3.702           7.252          10.209          24.492          27.326          31.379          32.097          38.914          40.242          44.379          50.477          56.998          62.229          64.951          65.721          66.042          69.668          70.957          78.013          79.534          79.673          82.753          83.587          84.566          85.382          88.181          88.862          90.735          94.894          97.328         104.687         104.930         106.693         108.611         113.791         120.605         125.720         127.248         137.632         143.242         143.440         143.796         146.025         146.544         157.980         164.478         165.944         171.074
  116           3.947           7.761          10.892          24.407          27.346          31.440          31.748          38.890          40.431          44.379          50.199          56.999          62.117          64.974          65.770          66.024          69.673          70.956          78.120          79.544          79.671          82.728          83.566          84.555          85.446          88.139          88.860          90.866          94.892          97.333         104.622         104.902         106.698         108.509         113.928         120.576         125.710         127.251         137.632         143.246         143.439         143.796         146.024         146.545         157.983         164.478         165.940         171.075
  117           4.188           8.266          11.564          24.317          27.376          31.395          31.501          38.862          40.614          44.375          49.912          57.001          62.007          64.999          65.817          66.004          69.677          70.954          78.229          79.554          79.669          82.702          83.547          84.541          85.512          88.099          88.859          90.997          94.890          97.338         104.551         104.874         106.702         108.411         114.065         120.546         125.699         127.253         137.633         143.251         143.438         143.795         146.023         146.545         157.986         164.477         165.937         171.076
  118           4.424           8.770          12.224          24.221          27.419          31.037          31.562          38.832          40.790          44.365          49.619          57.003          61.900          65.023          65.861          65.985          69.682          70.953          78.338          79.565          79.666          82.675          83.531          84.526          85.579          88.062          88.858          91.128          94.887          97.343         104.477         104.845         106.707         108.317         114.200         120.513         125.689         127.256         137.634         143.257         143.437         143.795         146.021         146.545         157.989         164.477         165.933         171.077
  119           4.655           9.270          12.870          24.119          27.475          30.676          31.621          38.797          40.960          44.349          49.322          57.004          61.795          65.048          65.902          65.964          69.686          70.952          78.446          79.576          79.664          82.648          83.517          84.508          85.646          88.027          88.856          91.260          94.885          97.349         104.398         104.816         106.712         108.229         114.334         120.480         125.678         127.258         137.634         143.262         143.437         143.794         146.020         146.546         157.992         164.476         165.929         171.078
  120           4.881           9.768          13.502          24.013          27.544          30.311          31.679          38.758          41.123          44.323          49.025          57.006          61.693          65.072          65.940          65.944          69.691          70.950          78.553          79.588          79.661          82.621          83.506          84.490          85.714          87.995          88.855          91.392          94.882          97.354         104.315         104.786         106.717         108.145         114.467         120.445         125.667         127.260         137.635         143.267         143.436         143.793         146.019         146.546         157.995         164.475         165.926         171.079
  121           5.101          10.262          14.117          23.903          27.629          29.943          31.735          38.714          41.280          44.287          48.731          57.008          61.595          65.097          65.923          65.976          69.695          70.949          78.659          79.599          79.659          82.594          83.498          84.469          85.782          87.965          88.853          91.523          94.880          97.359         104.228         104.755         106.721         108.066         114.596         120.409         125.656         127.263         137.636         143.273         143.435         143.792         146.018         146.546         157.998         164.475         165.922         171.080
  122           5.315          10.753          14.714          23.789          27.729          29.573          31.789          38.664          41.429          44.238          48.444          57.010          61.500          65.121          65.903          66.009          69.699          70.948          78.761          79.611          79.657          82.566          83.493          84.448          85.850          87.937          88.852          91.654          94.877          97.365         104.139         104.725         106.726         107.993         114.724         120.372         125.645         127.265         137.637         143.279         143.434         143.791         146.017         146.547         158.001         164.474         165.918         171.081
  123           5.522          11.239          15.291          23.673          27.846          29.200          31.842          38.607          41.572          44.174          48.168          57.011          61.409          65.145          65.882          66.040          69.704          70.946          78.860          79.623          79.655          82.539          83.490          84.425          85.917          87.911          88.850          91.782          94.874          97.370         104.047         104.695         106.730         107.925         114.848         120.334         125.635         127.267         137.638         143.284         143.433         143.790         146.016         146.547         158.005         164.473         165.914         171.082
  124           5.721          11.721          15.847          23.555          27.980          28.826          31.892          38.543          41.707          44.092          47.908          57.013          61.322          65.168          65.862          66.068          69.708          70.945          78.955          79.635          79.653          82.513          83.490          84.400          85.983          87.888          88.849          91.909          94.872          97.376         103.953         104.665         106.734         107.862         114.969         120.296         125.624         127.269         137.638         143.290         143.432         143.789         146.015         146.547         158.008         164.473         165.911         171.083
  125           5.914          12.198          16.380          23.436          28.132          28.451          31.939          38.470          41.835          43.991          47.667          57.015          61.239          65.191          65.842          66.094          69.712          70.944          79.046          79.646          79.652          82.486          83.494          84.375          86.048          87.866          88.847          92.033          94.869          97.381         103.858         104.636         106.738         107.804         115.087         120.257         125.614         127.272         137.639         143.295         143.431         143.788         146.014         146.548         158.011         164.472         165.907         171.084
  126           6.098          12.668          16.888          23.315          28.075          28.304          31.984          38.387          41.956          43.870          47.449          57.017          61.160          65.212          65.823          66.118          69.716          70.942          79.130          79.653          79.658          82.461          83.500          84.348          86.111          87.846          88.845          92.154          94.867          97.386         103.763         104.607         106.742         107.751         115.200         120.218         125.604         127.274         137.640         143.301         143.430         143.787         146.013         146.548         158.014         164.472         165.904         171.085
  127           6.273          13.133          17.370          23.195          27.700          28.495          32.026          38.292          42.069          43.730          47.257          57.019          61.085          65.233          65.804          66.140          69.720          70.941          79.208          79.655          79.669          82.436          83.508          84.321          86.172          87.828          88.844          92.272          94.865          97.391         103.669         104.579         106.745         107.702         115.309         120.179         125.594         127.276         137.640         143.306         143.429         143.786         146.012         146.548         158.016         164.471         165.900         171.086
  128           6.440          13.589          17.824          23.074          27.327          28.705          32.065          38.184          42.175          43.572          47.091          57.021          61.015          65.253          65.786          66.160          69.723          70.940          79.279          79.659          79.680          82.412          83.519          84.292          86.230          87.811          88.842          92.385          94.863          97.396         103.576         104.552         106.749         107.658         115.413         120.140         125.585         127.277         137.641         143.311         143.429         143.785         146.011         146.549         158.019         164.470         165.897         171.087
  129           6.596          14.037          18.250          22.954          26.955          28.935          32.101          38.061          42.274          43.400          46.951          57.022          60.950          65.272          65.769          66.178          69.727          70.939          79.341          79.667          79.691          82.390          83.533          84.263          86.286          87.796          88.840          92.494          94.860          97.400         103.485         104.526         106.752         107.619         115.512         120.102         125.576         127.279         137.642         143.316         143.428         143.784         146.010         146.549         158.022         164.470         165.894         171.088
  130           6.743          14.474          18.646          22.835          26.589          29.183          32.133          37.923          42.364          43.219          46.835          57.024          60.889          65.290          65.752          66.194          69.730          70.938          79.393          79.680          79.701          82.368          83.549          84.233          86.339          87.783          88.839          92.597          94.858          97.404         103.397         104.502         106.755         107.583         115.605         120.065         125.568         127.281         137.642         143.321         143.427         143.783         146.009         146.549         158.024         164.469         165.891         171.089
  131           6.879          14.900          19.014          22.716          26.228          29.448          32.163          37.769          42.447          43.034          46.741          57.026          60.833          65.306          65.737          66.209          69.733          70.937          79.434          79.698          79.710          82.348          83.568          84.202          86.388          87.770          88.837          92.693          94.857          97.408         103.314         104.479         106.757         107.551         115.693         120.030         125.560         127.282         137.643         143.325         143.426         143.782         146.009         146.549         158.027         164.469         165.888         171.090
  132           7.004          15.311          19.351          22.599          25.875          29.728          32.188          37.598          42.523          42.853          46.665          57.027          60.782          65.321          65.723          66.222          69.736          70.936          79.464          79.719          79.721          82.330          83.588          84.171          86.434          87.760          88.836          92.784          94.855          97.412         103.235         104.458         106.760         107.523         115.773         119.996         125.553         127.284         137.643         143.329         143.426         143.781         146.008         146.549         158.029         164.468         165.886         171.091
  133           7.117          15.704          19.660          22.483          25.534          30.019          32.209          37.412          42.590          42.680          46.605          57.029          60.737          65.335          65.710          66.233          69.738          70.935          79.485          79.727          79.748          82.313          83.611          84.139          86.476          87.750          88.835          92.866          94.853          97.415         103.162         104.439         106.762         107.499         115.847         119.964         125.546         127.285         137.644         143.333         143.425         143.780         146.007         146.549         158.031         164.468         165.883         171.091
  134           7.218          16.076          19.942          22.368          25.207          30.316          32.226          37.212          42.520          42.650          46.559          57.030          60.696          65.347          65.699          66.243          69.740          70.934          79.499          79.734          79.777          82.297          83.634          84.107          86.514          87.742          88.834          92.941          94.852          97.419         103.095         104.421         106.764         107.477         115.914         119.935         125.541         127.286         137.644         143.337         143.425         143.779         146.007         146.550         158.032         164.468         165.881         171.092
  135           7.307          16.423          20.196          22.254          24.901          30.615          32.237          37.005          42.377          42.701          46.522          57.031          60.660          65.358          65.689          66.252          69.742          70.933          79.508          79.741          79.805          82.284          83.660          84.074          86.547          87.735          88.833          93.007          94.851          97.421         103.035         104.406         106.766         107.459         115.973         119.908         125.535         127.287         137.645         143.340         143.424         143.778         146.006         146.550         158.034         164.467         165.880         171.093
  136           7.382          16.737          20.425          22.141          24.620          30.908          32.241          36.796          42.253          42.745          46.494          57.032          60.630          65.367          65.680          66.259          69.744          70.933          79.513          79.747          79.830          82.272          83.686          84.042          86.575          87.729          88.832          93.064          94.850          97.424         102.984         104.393         106.767         107.444         116.023         119.885         125.531         127.288         137.645         143.342         143.424         143.778         146.006         146.550         158.035         164.467         165.878         171.093
  137           7.445          17.013          20.629          22.030          24.372          31.186          32.237          36.595          42.151          42.781          46.474          57.033          60.606          65.374          65.673          66.264          69.745          70.932          79.516          79.751          79.852          82.263          83.713          84.011          86.599          87.724          88.831          93.112          94.849          97.425         102.941         104.382         106.768         107.432         116.065         119.866         125.527         127.288         137.645         143.344         143.423         143.777         146.006         146.550         158.036         164.467         165.877         171.093
  138           7.494          17.241          20.806          21.924          24.165          31.439          32.221          36.414          42.071          42.809          46.459          57.033          60.586          65.380          65.667          66.269          69.746          70.932          79.519          79.755          79.870          82.256          83.739          83.981          86.618          87.720          88.830          93.149          94.848          97.427         102.906         104.373         106.769         107.422         116.098         119.850         125.525         127.289         137.645         143.346         143.423         143.777         146.005         146.550         158.037         164.466         165.876         171.094
  139           7.529          17.413          20.953          21.827          24.008          31.656          32.191          36.269          42.014          42.829          46.449          57.034          60.572          65.384          65.663          66.272          69.747          70.932          79.520          79.758          79.882          82.250          83.763          83.955          86.631          87.718          88.830          93.176          94.848          97.428         102.882         104.367         106.770         107.416         116.122         119.839         125.523         127.289         137.646         143.347         143.423         143.776         146.005         146.550         158.038         164.466         165.875         171.094
  140           7.550          17.520          21.058          21.751          23.910          31.821          32.146          36.173          41.980          42.841          46.443          57.034          60.564          65.387          65.661          66.274          69.748          70.932          79.520          79.759          79.890          82.247          83.782          83.934          86.639          87.716          88.830          93.192          94.847          97.429         102.867         104.363         106.770         107.412         116.136         119.832         125.521         127.290         137.646         143.348         143.423         143.776         146.005         146.550         158.038         164.466         165.875         171.094
  141           7.557          17.557          21.098          21.721          23.877          31.894          32.114          36.140          41.968          42.845          46.441          57.034          60.561          65.388          65.660          66.275          69.748          70.931          79.521          79.760          79.893          82.246          83.790          83.926          86.642          87.716          88.830          93.198          94.847          97.429         102.862         104.362         106.770         107.410         116.141         119.830         125.521         127.290         137.646         143.348         143.423         143.776         146.005         146.550         158.038         164.466         165.874         171.094
  142           7.550          17.520          21.058          21.751          23.910          31.821          32.146          36.173          41.980          42.841          46.443          57.034          60.564          65.387          65.661          66.274          69.748          70.932          79.520          79.759          79.890          82.247          83.782          83.934          86.639          87.716          88.830          93.192          94.847          97.429         102.867         104.363         106.770         107.412         116.136         119.832         125.521         127.290         137.646         143.348         143.423         143.776         146.005         146.550         158.038         164.466         165.875         171.094
  143           7.529          17.413          20.953          21.827          24.008          31.656          32.191          36.269          42.014          42.829          46.449          57.034          60.572          65.384          65.663          66.272          69.747          70.932          79.520          79.758          79.882          82.250          83.763          83.955          86.631          87.718          88.830          93.176          94.848          97.428         102.882         104.367         106.770         107.416         116.122         119.839         125.523         127.289         137.646         143.347         143.423         143.776         146.005         146.550         158.038         164.466         165.875         171.094
  144           7.494          17.241          20.806          21.924          24.165          31.439          32.221          36.414          42.071          42.809          46.459          57.033          60.586          65.380          65.667          66.269          69.746          70.932          79.519          79.755          79.870          82.256          83.739          83.981          86.618          87.720          88.830          93.149          94.848          97.427         102.906         104.373         106.769         107.422         116.098         119.850         125.525         127.289         137.645         143.346         143.423         143.777         146.005         146.550         158.037         164.466         165.876         171.094
  145           7.445          17.013          20.629          22.030          24.372          31.186          32.237          36.595          42.151          42.781          46.474          57.033          60.606          65.374          65.673          66.264          69.745          70.932          79.516          79.751          79.852          82.263          83.713          84.011          86.599          87.724          88.831          93.112          94.849          97.425         102.941         104.382         106.768         107.432         116.065         119.866         125.527         127.288         137.645         143.344         143.423         143.777         146.006         146.550         158.036         164.467         165.877         171.093
  146           7.382          16.737          20.425          22.141          24.620          30.908          32.241          36.796          42.253          42.745          46.494          57.032          60.630          65.367          65.680          66.259          69.744          70.933          79.513          79.747          79.830          82.272          83.686          84.042          86.575          87.729          88.832          93.064          94.850          97.424         102.984         104.393         106.767         107.444         116.023         119.885         125.531         127.288         137.645         143.342         143.424         143.778         146.006         146.550         158.035         164.467         165.878         171.093
  147           7.307          16.423          20.196          22.254          24.901          30.615          32.237          37.005          42.377          42.701          46.522          57.031          60.660          65.358          65.689          66.252          69.742          70.933          79.508          79.741          79.805          82.284          83.660          84.074          86.547          87.735          88.833          93.007          94.851          97.421         103.035         104.406         106.766         107.459         115.973         119.908         125.535         127.287         137.645         143.340         143.424         143.778         146.006         146.550         158.034         164.467         165.880         171.093
  148           7.218          16.076          19.942          22.368          25.207          30.316          32.226          37.212          42.520          42.650          46.559          57.030          60.696          65.347          65.699          66.243          69.740          70.934          79.499          79.734          79.777          82.297          83.634          84.107          86.514          87.742          88.834          92.941          94.852          97.419         103.095         104.421         106.764         107.477         115.914         119.935         125.541         127.286         137.644         143.337         143.425         143.779         146.007         146.550         158.032         164.468         165.881         171.092
  149           7.117          15.704          19.660          22.483          25.534          30.019          32.209          37.412          42.590          42.680          46.605          57.029          60.737          65.335          65.710          66.233          69.738          70.935          79.485          79.727          79.748          82.313          83.611          84.139          86.476          87.750          88.835          92.866          94.853          97.415         103.162         104.439         106.762         107.499         115.847         119.964         125.546         127.285         137.644         143.333         143.425         143.780         146.007         146.549         158.031         164.468         165.883         171.091
  150           7.004          15.311          19.351          22.599          25.875          29.728          32.188          37.598          42.523          42.853          46.665          57.027          60.782          65.321          65.723          66.222          69.736          70.936          79.464          79.719          79.721          82.330          83.588          84.171          86.434          87.760          88.836          92.784          94.855          97.412         103.235         104.458         106.760         107.523         115.773         119.996         125.553         127.284         137.643         143.329         143.426         143.781         146.008         146.549         158.029         164.468         165.886         171.091
  151           6.879          14.900          19.014          22.716          26.228          29.448          32.163          37.769          42.447          43.034          46.741          57.026          60.833          65.306          65.737          66.209          69.733          70.937          79.434          79.698          79.710          82.348          83.568          84.202          86.388          87.770          88.837          92.693          94.857          97.408         103.314         104.479         106.757         107.551         115.693         120.030         125.560         127.282         137.643         143.325         143.426         143.782         146.009         146.549         158.027         164.469         165.888         171.090
  152           6.743          14.474          18.646          22.835          26.589          29.183          32.133          37.923          42.364          43.219          46.835          57.024          60.889          65.290          65.752          66.194          69.730          70.938          79.393          79.680          79.701          82.368          83.549          84.233          86.339          87.783          88.839          92.597          94.858          97.404         103.397         104.502         106.755         107.583         115.605         120.065         125.568         127.281         137.642         143.321         143.427         143.783         146.009         146.549         158.024         164.469         165.891         171.089
  153           6.596          14.037          18.250          22.954          26.955          28.935          32.101          38.061          42.274          43.400          46.951          57.022          60.950          65.272          65.769          66.178          69.727          70.939          79.341          79.667          79.691          82.390          83.533          84.263          86.286          87.796          88.840          92.494          94.860          97.400         103.485         104.526         106.752         107.619         115.512         120.102         125.576         127.279         137.642         143.316         143.428         143.784         146.010         146.549         158.022         164.470         165.894         171.088
  154           6.440          13.589          17.824          23.074          27.327          28.705          32.065          38.184          42.175          43.572          47.091          57.021          61.015          65.253          65.786          66.160          69.723          70.940          79.279          79.659          79.680          82.412          83.519          84.292          86.230          87.811          88.842          92.385          94.863          97.396         103.576         104.552         106.749         107.658         115.413         120.140         125.585         127.277         137.641         143.311         143.429         143.785         146.011         146.549         158.019         164.470         165.897         171.087
  155           6.273          13.133          17.370          23.195          27.700          28.495          32.026          38.292          42.069          43.730          47.257          57.019          61.085          65.233          65.804          66.140          69.720          70.941          79.208          79.655          79.669          82.436          83.508          84.321          86.172          87.828          88.844          92.272          94.865          97.391         103.669         104.579         106.745         107.702         115.309         120.179         125.594         127.276         137.640         143.306         143.429         143.786         146.012         146.548         158.016         164.471         165.900         171.086
  156           6.098          12.668          16.888          23.315          28.075          28.304          31.984          38.387          41.956          43.870          47.449          57.017          61.160          65.212          65.823          66.118          69.716          70.942          79.130          79.653          79.658          82.461          83.500          84.348          86.111          87.846          88.845          92.154          94.867          97.386         103.763         104.607         106.742         107.751         115.200         120.218         125.604         127.274         137.640         143.301         143.430         143.787         146.013         146.548         158.014         164.472         165.904         171.085
  157           5.914          12.198          16.380          23.436          28.132          28.451          31.939          38.470          41.835          43.991          47.667          57.015          61.239          65.191          65.842          66.094          69.712          70.944          79.046          79.646          79.652          82.486          83.494          84.375          86.048          87.866          88.847          92.033          94.869          97.381         103.858         104.636         106.738         107.804         115.087         120.257         125.614         127.272         137.639         143.295         143.431         143.788         146.014         146.548         158.011         164.472         165.907         171.084
  158           5.721          11.721          15.847          23.555          27.980          28.826          31.892          38.543          41.707          44.092          47.908          57.013          61.322          65.168          65.862          66.068          69.708          70.945          78.955          79.635          79.653          82.513          83.490          84.400          85.983          87.888          88.849          91.909          94.872          97.376         103.953         104.665         106.734         107.862         114.969         120.296         125.624         127.269         137.638         143.290         143.432         143.789         146.015         146.547         158.008         164.473         165.911         171.083
  159           5.522          11.239          15.291          23.673          27.846          29.200          31.842          38.607          41.572          44.174          48.168          57.011          61.409          65.145          65.882          66.040          69.704          70.946          78.860          79.623          79.655          82.539          83.490          84.425          85.917          87.911          88.850          91.782          94.874          97.370         104.047         104.695         106.730         107.925         114.848         120.334         125.635         127.267         137.638         143.284         143.433         143.790         146.016         146.547         158.005         164.473         165.914         171.082
  160           5.315          10.753          14.714          23.789          27.729          29.573          31.789          38.664          41.429          44.238          48.444          57.010          61.500          65.121          65.903          66.009          69.699          70.948          78.761          79.611          79.657          82.566          83.493          84.448          85.850          87.937          88.852          91.654          94.877          97.365         104.139         104.725         106.726         107.993         114.724         120.372         125.645         127.265         137.637         143.279         143.434         143.791         146.017         146.547         158.001         164.474         165.918         171.081
  161           5.101          10.262          14.117          23.903          27.629          29.943          31.735          38.714          41.280          44.287          48.731          57.008          61.595          65.097          65.923          65.976          69.695          70.949          78.659          79.599          79.659          82.594          83.498          84.469          85.782          87.965          88.853          91.523          94.880          97.359         104.228         104.755         106.721         108.066         114.596         120.409         125.656         127.263         137.636         143.273         143.435         143.792         146.018         146.546         157.998         164.475         165.922         171.080
  162           4.881           9.768          13.502          24.013          27.544          30.311          31.679          38.758          41.123          44.323          49.025          57.006          61.693          65.072          65.940          65.944          69.691          70.950          78.553          79.588          79.661          82.621          83.506          84.490          85.714          87.995          88.855          91.392          94.882          97.354         104.315         104.786         106.717         108.145         114.467         120.445         125.667         127.260         137.635         143.267         143.436         143.793         146.019         146.546         157.995         164.475         165.926         171.079
  163           4.655           9.270          12.870          24.119          27.475          30.676          31.621          38.797          40.960          44.349          49.322          57.004          61.795          65.048          65.902          65.964          69.686          70.952          78.446          79.576          79.664          82.648          83.517          84.508          85.646          88.027          88.856          91.260          94.885          97.349         104.398         104.816         106.712         108.229         114.334         120.480         125.678         127.258         137.634         143.262         143.437         143.794         146.020         146.546         157.992         164.476         165.929         171.078
  164           4.424           8.770          12.224          24.221          27.419          31.037          31.562          38.832          40.790          44.365          49.619          57.003          61.900          65.023          65.861          65.985          69.682          70.953          78.338          79.565          79.666          82.675          83.531          84.526          85.579          88.062          88.858          91.128          94.887          97.343         104.477         104.845         106.707         108.317         114.200         120.513         125.689         127.256         137.634         143.257         143.437         143.795         146.021         146.545         157.989         164.477         165.933         171.077
  165           4.188           8.266          11.564          24.317          27.376          31.395          31.501          38.862          40.614          44.375          49.912          57.001          62.007          64.999          65.817          66.004          69.677          70.954          78.229          79.554          79.669          82.702          83.547          84.541          85.512          88.099          88.859          90.997          94.890          97.338         104.551         104.874         106.702         108.411         114.065         120.546         125.699         127.253         137.633         143.251         143.438         143.795         146.023         146.545         157.986         164.477         165.937         171.076
  166           3.947           7.761          10.892          24.407          27.346          31.440          31.748          38.890          40.431          44.379          50.199          56.999          62.117          64.974          65.770          66.024          69.673          70.956          78.120          79.544          79.671          82.728          83.566          84.555          85.446          88.139          88.860          90.866          94.892          97.333         104.622         104.902         106.698         108.509         113.928         120.576         125.710         127.251         137.632         143.246         143.439         143.796         146.024         146.545         157.983         164.478         165.940         171.075
  167           3.702           7.252          10.209          24.492          27.326          31.379          32.097          38.914          40.242          44.379          50.477          56.998          62.229          64.951          65.721          66.042          69.668          70.957          78.013          79.534          79.673          82.753          83.587          84.566          85.382          88.181          88.862          90.735          94.894          97.328         104.687         104.930         106.693         108.611         113.791         120.605         125.720         127.248         137.632         143.242         143.440         143.796         146.025         146.544         157.980         164.478         165.944         171.074
  168           3.453           6.742           9.516          24.569          27.317          31.317          32.442          38.936          40.048          44.376          50.744          56.997          62.342          64.928          65.668          66.060          69.664          70.958          77.907          79.524          79.675          82.777          83.611          84.575          85.320          88.226          88.863          90.607          94.897          97.324         104.748         104.956         106.688         108.716         113.655         120.633         125.729         127.246         137.631         143.237         143.441         143.797         146.026         146.544         157.978         164.479         165.947         171.073
  169           3.201           6.230           8.814          24.640          27.316          31.256          32.780          38.955          39.847          44.370          50.999          56.995          62.457          64.905          65.613          66.077          69.660          70.959          77.805          79.515          79.677          82.800          83.636          84.581          85.261          88.275          88.864          90.479          94.899          97.319         104.803         104.981         106.684         108.823         113.518         120.658         125.739         127.244         137.630         143.232         143.442         143.797         146.027         146.544         157.975         164.479         165.950         171.072
  170           2.945           5.717           8.105          24.704          27.324          31.196          33.114          38.972          39.642          44.362          51.238          56.994          62.572          64.884          65.555          66.093          69.656          70.960          77.706          79.507          79.678          82.822          83.663          84.585          85.205          88.326          88.865          90.354          94.901          97.315         104.854         105.005         106.679         108.933         113.384         120.682         125.748         127.242         137.630         143.228         143.442         143.798         146.028         146.544         157.973         164.480         165.953         171.071
  171           2.686           5.202           7.388          24.761          27.338          31.137          33.440          38.987          39.432          44.353          51.462          56.993          62.686          64.864          65.496          66.108          69.652          70.961          77.613          79.499          79.680          82.843          83.693          84.584          85.153          88.380          88.866          90.231          94.903          97.311         104.900         105.027         106.675         109.043         113.252         120.704         125.756         127.240         137.629         143.224         143.443         143.798         146.029         146.543         157.970         164.480         165.956         171.070
  172           2.425           4.685           6.666          24.811          27.357          31.081          33.760          39.000          39.219          44.344          51.668          56.992          62.799          64.845          65.434          66.122          69.649          70.962          77.525          79.491          79.681          82.862          83.723          84.580          85.106          88.437          88.867          90.110          94.904          97.307         104.941         105.047         106.671         109.152         113.123         120.724         125.764         127.238         137.629         143.221         143.444         143.798         146.029         146.543         157.968         164.481         165.958         171.069
  173           2.161           4.167           5.938          24.854          27.379          31.028          34.072          39.002          39.012          44.335          51.855          56.991          62.910          64.827          65.371          66.135          69.646          70.963          77.443          79.485          79.682          82.879          83.754          84.571          85.065          88.498          88.867          89.992          94.906          97.304         104.977         105.066         106.668         109.260         112.999         120.742         125.771         127.236         137.628         143.218         143.444         143.799         146.030         146.543         157.966         164.481         165.961         171.068
  174           1.895           3.649           5.205          24.891          27.404          30.978          34.374          38.784          39.022          44.326          52.023          56.990          63.016          64.811          65.308          66.146          69.643          70.964          77.369          79.479          79.683          82.895          83.786          84.559          85.030          88.561          88.868          89.877          94.907          97.301         105.009         105.083         106.664         109.364         112.881         120.758         125.777         127.235         137.628         143.215         143.445         143.799         146.031         146.542         157.965         164.481         165.963         171.068
  175           1.628           3.129           4.469          24.922          27.430          30.933          34.664          38.566          39.030          44.317          52.170          56.990          63.117          64.797          65.247          66.156          69.640          70.964          77.303          79.474          79.684          82.908          83.817          84.542          85.000          88.628          88.869          89.766          94.909          97.298         105.036         105.097         106.661         109.461         112.771         120.772         125.783         127.233         137.627         143.212         143.445         143.799         146.031         146.542         157.963         164.482         165.964         171.067
  176           1.359           2.609           3.729          24.948          27.454          30.893          34.940          38.352          39.037          44.310          52.296          56.989          63.210          64.784          65.188          66.165          69.638          70.965          77.246          79.469          79.684          82.920          83.847          84.523          84.977          88.697          88.869          89.658          94.910          97.296         105.059         105.110         106.658         109.551         112.672         120.784         125.787         127.232         137.627         143.210         143.446         143.799         146.032         146.542         157.962         164.482         165.966         171.067
  177           1.089           2.088           2.986          24.968          27.477          30.859          35.197          38.146          39.043          44.303          52.400          56.989          63.293          64.773          65.134          66.172          69.636          70.965          77.198          79.466          79.685          82.930          83.875          84.502          84.960          88.768          88.870          89.555          94.911          97.294         105.077         105.120         106.656         109.631         112.585         120.794         125.791         127.231         137.627         143.208         143.446         143.799         146.032         146.542         157.961         164.482         165.967         171.066
  178           0.817           1.566           2.242          24.983          27.495          30.832          35.426          37.956          39.047          44.298          52.481          56.988          63.362          64.764          65.088          66.178          69.634          70.966          77.161          79.463          79.685          82.938          83.900          84.482          84.947          88.840          88.870          89.459          94.911          97.293         105.091         105.129         106.654         109.696         112.513         120.801         125.794         127.230         137.627         143.207         143.446         143.799         146.033         146.542         157.960         164.482         165.968         171.066
  179           0.545           1.044           1.495          24.994          27.510          30.812          35.613          37.797          39.050          44.294          52.539          56.988          63.415          64.757          65.052          66.182          69.633          70.966          77.133          79.461          79.686          82.943          83.919          84.466          84.939          88.870          88.910          89.371          94.912          97.292         105.101         105.134         106.653         109.746         112.460         120.807         125.797         127.230         137.626         143.206         143.446         143.799         146.033         146.542         157.959         164.482         165.969         171.066
  180           0.273           0.522           0.748          25.001          27.519          30.800          35.741          37.686          39.052          44.292          52.574          56.988          63.448          64.753          65.030          66.184          69.632          70.966          77.117          79.459          79.686          82.947          83.932          84.455          84.934          88.870          88.968          89.301          94.912          97.291         105.107         105.138         106.652         109.777         112.426         120.810         125.798         127.229         137.626         143.205         143.446         143.799         146.033         146.542         157.959         164.482         165.970         171.066
  181         -31.194           0.000           0.000           0.000           0.000           0.000           0.000          33.041          38.255          44.553          45.150          51.864          56.684          58.066          59.147          60.812          69.965          73.048          73.165          75.293          76.745          77.999          80.469          84.678          87.004          91.189          93.164          95.158          98.791          99.364         105.013         107.757         110.071         111.375         115.495         127.119         128.047         134.979         137.466         140.090         141.784         145.943         147.108         152.554         158.334         164.580         166.374         171.255
  182          -0.599           0.688           1.200          25.014          27.516          30.817          35.790          37.652          39.048          44.304          52.587          56.991          63.454          64.755          65.032          66.181          69.630          70.963          77.116          79.455          79.685          82.946          83.936          84.451          84.935          88.870          88.996          89.274          94.912          97.292         105.109         105.138         106.650         109.787         112.415         120.810         125.793         127.234         137.626         143.197         143.447         143.798         146.028         146.535         157.960         164.481         165.969         171.069
  183          -1.195           1.377           2.400          25.045          27.501          30.879          35.799          37.670          39.034          44.343          52.588          57.000          63.436          64.766          65.062          66.171          69.624          70.952          77.130          79.441          79.683          82.942          83.936          84.452          84.942          88.871          89.000          89.280          94.912          97.296         105.110         105.136         106.644         109.785         112.414         120.808         125.777         127.250         137.627         143.173         143.447         143.795         146.011         146.517         157.965         164.477         165.969         171.081
  184          -1.785           2.065           3.599          25.096          27.477          30.982          35.814          37.702          39.011          44.408          52.591          57.015          63.409          64.782          65.111          66.153          69.614          70.934          77.153          79.419          79.678          82.936          83.935          84.454          84.954          88.871          89.007          89.291          94.913          97.303         105.110         105.131         106.635         109.783         112.413         120.804         125.751         127.274         137.628         143.134         143.448         143.788         145.983         146.486         157.973         164.470         165.967         171.099
  185          -2.367           2.752           4.795          25.165          27.445          31.123          35.835          37.745          38.982          44.495          52.595          57.037          63.375          64.803          65.178          66.129          69.600          70.909          77.185          79.388          79.673          82.926          83.934          84.456          84.971          88.871          89.017          89.307          94.913          97.312         105.110         105.124         106.621         109.779         112.411         120.799         125.716         127.308         137.629         143.082         143.449         143.777         145.944         146.443         157.984         164.460         165.966         171.125
  186          -2.938           3.439           5.989          25.249          27.409          31.301          35.863          37.801          38.949          44.604          52.602          57.064          63.334          64.828          65.260          66.098          69.582          70.878          77.226          79.348          79.665          82.914          83.933          84.458          84.993          88.872          89.029          89.327          94.914          97.324         105.110         105.116         106.604         109.774         112.409         120.792         125.673         127.348         137.630         143.016         143.451         143.761         145.893         146.387         157.998         164.448         165.964         171.159
  187          -3.496           4.125           7.179          25.344          27.371          31.514          35.896          37.868          38.913          44.731          52.611          57.097          63.291          64.857          65.357          66.060          69.562          70.839          77.276          79.300          79.656          82.899          83.933          84.459          85.020          88.873          89.043          89.352          94.914          97.339         105.106         105.111         106.582         109.769         112.406         120.784         125.624         127.395         137.631         142.939         143.453         143.738         145.832         146.320         158.015         164.432         165.962         171.199
  188          -4.040           4.811           8.365          25.447          27.336          31.760          35.936          37.948          38.878          44.874          52.622          57.137          63.247          64.890          65.464          66.016          69.539          70.793          77.336          79.243          79.644          82.882          83.933          84.460          85.053          88.874          89.058          89.382          94.914          97.358         105.094         105.111         106.557         109.762         112.403         120.774         125.569         127.448         137.633         142.852         143.455         143.708         145.759         146.240         158.034         164.414         165.960         171.245
  189          -4.568           5.495           9.546          25.550          27.307          32.037          35.983          38.039          38.846          45.031          52.638          57.182          63.203          64.927          65.580          65.965          69.514          70.740          77.404          79.177          79.631          82.861          83.934          84.460          85.091          88.875          89.075          89.417          94.915          97.379         105.080         105.112         106.528         109.754         112.399         120.763         125.509         127.504         137.635         142.756         143.458         143.669         145.676         146.149         158.057         164.394         165.959         171.298
  190          -5.078           6.177          10.721          25.647          27.291          32.342          36.036          38.141          38.819          45.198          52.658          57.232          63.160          64.967          65.703          65.908          69.489          70.681          77.482          79.104          79.616          82.838          83.935          84.459          85.134          88.876          89.093          89.457          94.915          97.403         105.064         105.112         106.496         109.746         112.394         120.751         125.445         127.564         137.638         142.650         143.460         143.622         145.581         146.046         158.082         164.371         165.957         171.358
  191          -5.571           6.859          11.889          25.727          27.297          32.673          36.096          38.254          38.802          45.372          52.684          57.289          63.120          65.011          65.831          65.844          69.465          70.614          77.568          79.022          79.599          82.812          83.938          84.457          85.183          88.878          89.113          89.501          94.914          97.431         105.046         105.113         106.459         109.736         112.390         120.737         125.379         127.626         137.640         142.537         143.464         143.565         145.475         145.932         158.109         164.345         165.957         171.423
  192          -6.046           7.539          13.048          25.783          27.330          33.027          36.163          38.378          38.795          45.552          52.717          57.350          63.084          65.058          65.774          65.961          69.442          70.541          77.662          78.933          79.580          82.782          83.942          84.454          85.236          88.880          89.133          89.551          94.914          97.463         105.026         105.114         106.419         109.725         112.384         120.721         125.309         127.691         137.643         142.415         143.467         143.498         145.357         145.806         158.139         164.317         165.957         171.493
  193          -6.503           8.217          14.198          25.807          27.399          33.402          36.236          38.513          38.803          45.734          52.757          57.417          63.051          65.109          65.699          66.092          69.424          70.462          77.765          78.836          79.560          82.750          83.947          84.449          85.295          88.883          89.155          89.605          94.912          97.498         105.004         105.115         106.376         109.713         112.379         120.705         125.238         127.757         137.646         142.287         143.421         143.471         145.229         145.670         158.171         164.287         165.958         171.568
  194          -6.940           8.893          15.336          25.797          27.504          33.795          36.316          38.657          38.828          45.916          52.807          57.489          63.024          65.163          65.618          66.220          69.413          70.376          77.876          78.731          79.538          82.714          83.953          84.443          85.359          88.886          89.178          89.662          94.911          97.537         104.979         105.116         106.329         109.701         112.373         120.687         125.164         127.825         137.650         142.153         143.333         143.475         145.090         145.523         158.205         164.254         165.960         171.649
  195          -7.360           9.568          16.462          25.753          27.642          34.202          36.403          38.812          38.873          46.095          52.867          57.566          63.001          65.220          65.531          66.342          69.410          70.283          77.993          78.619          79.516          82.675          83.960          84.436          85.428          88.889          89.202          89.724          94.909          97.580         104.952         105.117         106.279         109.687         112.366         120.668         125.090         127.893         137.653         142.012         143.235         143.480         144.939         145.366         158.240         164.220         165.964         171.733
  196          -7.761          10.240          17.571          25.683          27.809          34.619          36.497          38.942          38.977          46.270          52.938          57.648          62.984          65.280          65.440          66.454          69.421          70.184          78.116          78.500          79.494          82.633          83.967          84.429          85.502          88.893          89.227          89.789          94.907          97.627         104.922         105.119         106.226         109.673         112.359         120.647         125.014         127.962         137.657         141.865         143.125         143.484         144.778         145.199         158.278         164.183         165.969         171.822
  197          -8.145          10.909          18.662          25.592          27.998          35.042          36.598          39.040          39.151          46.438          53.023          57.734          62.974          65.343          65.343          66.554          69.448          70.079          78.242          78.374          79.474          82.587          83.975          84.423          85.581          88.898          89.254          89.858          94.904          97.677         104.889         105.120         106.170         109.657         112.352         120.625         124.938         128.032         137.661         141.713         143.004         143.489         144.606         145.023         158.316         164.145         165.975         171.914
  198          -8.511          11.577          19.729          25.488          28.206          35.466          36.706          39.170          39.335          46.598          53.121          57.824          62.969          65.243          65.408          66.637          69.496          69.967          78.241          78.370          79.460          82.538          83.981          84.418          85.664          88.903          89.282          89.929          94.901          97.732         104.853         105.122         106.113         109.641         112.344         120.603         124.860         128.101         137.666         141.556         142.872         143.494         144.423         144.837         158.356         164.105         165.983         172.010
  199          -8.861          12.241          20.764          25.379          28.427          35.887          36.820          39.337          39.527          46.747          53.234          57.917          62.972          65.138          65.476          66.700          69.567          69.850          78.102          78.492          79.457          82.485          83.984          84.416          85.751          88.909          89.311          90.003          94.898          97.790         104.813         105.124         106.053         109.623         112.336         120.579         124.783         128.171         137.670         141.394         142.727         143.500         144.230         144.643         158.396         164.064         165.993         172.109
  200          -9.194          12.903          21.750          25.281          28.660          36.298          36.941          39.547          39.728          46.886          53.362          58.014          62.982          65.029          65.546          66.741          69.663          69.726          77.956          78.601          79.472          82.429          83.984          84.418          85.843          88.916          89.342          90.079          94.895          97.853         104.769         105.126         105.992         109.605         112.328         120.554         124.705         128.240         137.675         141.228         142.571         143.506         144.027         144.440         158.438         164.021         166.004         172.210
  201          -9.512          13.562          22.651          25.232          28.902          36.697          37.069          39.803          39.938          47.012          53.506          58.114          62.999          64.918          65.617          66.759          69.597          69.785          77.804          78.687          79.517          82.369          83.977          84.427          85.939          88.924          89.374          90.157          94.892          97.919         104.720         105.128         105.930         109.586         112.319         120.527         124.627         128.310         137.680         141.057         142.401         143.512         143.815         144.229         158.479         163.977         166.017         172.314
  202          -9.814          14.217          23.370          25.324          29.152          37.082          37.203          40.107          40.157          47.127          53.665          58.217          63.025          64.804          65.690          66.756          69.462          69.934          77.646          78.739          79.601          82.305          83.963          84.445          86.039          88.932          89.408          90.237          94.889          97.988         104.665         105.130         105.868         109.566         112.310         120.500         124.549         128.378         137.685         140.883         142.219         143.518         143.594         144.010         158.521         163.932         166.032         172.420
  203         -10.102          14.869          23.751          25.712          29.409          37.343          37.453          40.383          40.458          47.230          53.839          58.321          63.058          64.688          65.763          66.733          69.322          70.106          77.482          78.756          79.726          82.237          83.941          84.471          86.142          88.942          89.443          90.318          94.887          98.062         104.605         105.133         105.806         109.545         112.300         120.472         124.471         128.447         137.691         140.704         142.024         143.364         143.524         143.784         158.563         163.886         166.049         172.528
  204         -10.375          15.518          23.808          26.378          29.672          37.490          37.814          40.617          40.854          47.323          54.028          58.426          63.100          64.570          65.836          66.693          69.176          70.301          77.312          78.745          79.884          82.165          83.911          84.507          86.249          88.952          89.479          90.401          94.884          98.139         104.538         105.135         105.746         109.524         112.291         120.444         124.393         128.514         137.696         140.523         141.816         143.127         143.530         143.550         158.605         163.839         166.068         172.638
  205         -10.635          16.164          23.704          27.156          29.941          37.643          38.173          40.859          41.288          47.405          54.230          58.531          63.151          64.453          65.907          66.641          69.026          70.515          77.136          78.714          80.069          82.089          83.873          84.552          86.360          88.964          89.516          90.484          94.883          98.219         104.464         105.138         105.687         109.501         112.281         120.414         124.315         128.581         137.702         140.338         141.593         142.882         143.309         143.537         158.647         163.791         166.089         172.748
  206         -10.881          16.805          23.528          27.953          30.214          37.801          38.535          41.109          41.754          47.481          54.444          58.636          63.212          64.336          65.971          66.583          68.870          70.746          76.955          78.668          80.274          82.010          83.828          84.606          86.474          88.976          89.555          90.568          94.882          98.302         104.383         105.142         105.631         109.478         112.271         120.383         124.238         128.647         137.708         140.150         141.358         142.630         143.061         143.544         158.688         163.743         166.112         172.860
  207         -11.115          17.443          23.315          28.729          30.492          37.965          38.908          41.366          42.245          47.551          54.669          58.739          63.282          64.220          66.020          66.530          68.709          70.991          76.768          78.613          80.495          81.926          83.776          84.668          86.591          88.990          89.595          90.653          94.882          98.388         104.294         105.145         105.577         109.454         112.260         120.352         124.161         128.712         137.714         139.959         141.109         142.373         142.807         143.551         158.728         163.694         166.136         172.973
  208         -11.336          18.076          23.078          29.468          30.775          38.135          39.300          41.630          42.753          47.620          54.903          58.839          63.362          64.108          66.039          66.500          68.543          71.249          76.576          78.550          80.728          81.838          83.718          84.739          86.711          89.004          89.637          90.738          94.883          98.476         104.196         105.149         105.526         109.429         112.250         120.320         124.085         128.776         137.720         139.765         140.846         142.109         142.546         143.558         158.767         163.645         166.163         173.087
  209         -11.545          18.705          22.824          30.157          31.065          38.309          39.713          41.901          43.270          47.692          55.145          58.935          63.452          63.999          66.013          66.508          68.373          71.517          76.379          78.481          80.973          81.746          83.654          84.817          86.834          89.020          89.679          90.824          94.885          98.567         104.091         105.153         105.478         109.404         112.239         120.288         124.009         128.839         137.726         139.569         140.571         141.839         142.280         143.565         158.805         163.596         166.191         173.201
  210         -11.743          19.330          22.554          30.789          31.365          38.489          40.150          42.179          43.790          47.773          55.393          59.025          63.553          63.897          65.946          66.554          68.198          71.794          76.177          78.409          81.229          81.650          83.586          84.903          86.960          89.036          89.722          90.909          94.888          98.660         103.977         105.157         105.433         109.378         112.228         120.255         123.934         128.901         137.733         139.371         140.283         141.564         142.008         143.572         158.842         163.546         166.221         173.315
  211         -11.930          19.950          22.272          31.342          31.692          38.673          40.612          42.463          44.302          47.872          55.645          59.108          63.666          63.803          65.851          66.624          68.019          72.077          75.969          78.333          81.493          81.550          83.513          84.996          87.088          89.054          89.767          90.994          94.893          98.755         103.856         105.161         105.391         109.351         112.217         120.221         123.859         128.961         137.739         139.169         139.983         141.283         141.731         143.580         158.878         163.496         166.253         173.429
  212         -12.105          20.566          21.979          31.778          32.085          38.862          41.096          42.753          44.796          48.000          55.901          59.180          63.718          63.789          65.740          66.709          67.837          72.367          75.757          78.255          81.445          81.765          83.436          85.097          87.219          89.073          89.812          91.079          94.900          98.851         103.727         105.166         105.352         109.324         112.206         120.187         123.786         129.019         137.746         138.965         139.673         140.996         141.450         143.587         158.912         163.446         166.287         173.543
  213         -12.270          21.177          21.676          32.119          32.523          39.055          41.596          43.050          45.254          48.174          56.158          59.241          63.645          63.925          65.620          66.802          67.650          72.660          75.539          78.175          81.337          82.044          83.356          85.206          87.353          89.093          89.859          91.164          94.908          98.949         103.591         105.171         105.316         109.296         112.195         120.153         123.713         129.077         137.753         138.757         139.354         140.703         141.164         143.595         158.944         163.397         166.322         173.656
  214         -12.425          21.362          21.782          32.426          32.947          39.252          42.108          43.352          45.662          48.412          56.417          59.288          63.585          64.072          65.494          66.902          67.461          72.957          75.317          78.094          81.225          82.329          83.274          85.322          87.488          89.115          89.906          91.247          94.918          99.048         103.448         105.176         105.281         109.268         112.183         120.118         123.642         129.132         137.759         138.544         139.029         140.404         140.875         143.602         158.975         163.347         166.359         173.769
  215         -12.570          21.040          22.383          32.722          33.338          39.452          42.621          43.660          46.003          48.729          56.675          59.319          63.542          64.231          65.366          67.007          67.268          73.255          75.091          78.013          81.108          82.616          83.193          85.445          87.626          89.138          89.953          91.330          94.930          99.147         103.300         105.182         105.249         109.239         112.172         120.083         123.571         129.186         137.766         138.322         138.702         140.098         140.583         143.610         159.004         163.298         166.398         173.882
  216         -12.705          20.709          22.978          33.014          33.694          39.655          43.128          43.974          46.276          49.131          56.931          59.333          63.515          64.402          65.237          67.072          67.116          73.554          74.860          77.932          80.988          82.881          83.136          85.576          87.765          89.164          90.001          91.413          94.943          99.247         103.146         105.188         105.218         109.210         112.161         120.048         123.501         129.238         137.773         138.081         138.384         139.786         140.287         143.617         159.032         163.249         166.438         173.993
  217         -12.830          20.369          23.567          33.303          34.018          39.862          43.619          44.293          46.491          49.610          57.186          59.328          63.507          64.584          65.110          66.874          67.230          73.853          74.624          77.853          80.864          82.951          83.277          85.714          87.907          89.192          90.050          91.494          94.959          99.346         102.987         105.188         105.194         109.180         112.149         120.013         123.433         129.287         137.780         137.806         138.092         139.469         139.989         143.625         159.057         163.200         166.479         174.104
  218         -12.946          20.021          24.151          33.588          34.315          40.070          44.082          44.617          46.667          50.148          57.438          59.303          63.518          64.772          64.990          66.675          67.348          74.148          74.384          77.777          80.736          82.876          83.563          85.859          88.049          89.225          90.099          91.574          94.977          99.445         102.824         105.159         105.200         109.150         112.138         119.977         123.366         129.334         137.487         137.787         137.835         139.145         139.689         143.633         159.081         163.151         166.521         174.214
  219         -13.053          19.665          24.729          33.870          34.588          40.281          44.508          44.946          46.826          50.730          57.687          59.258          63.546          64.835          65.013          66.475          67.470          74.140          74.440          77.705          80.604          82.784          83.868          86.010          88.191          89.262          90.149          91.653          94.996          99.542         102.658         105.131         105.207         109.120         112.126         119.942         123.300         129.379         137.139         137.601         137.794         138.817         139.386         143.640         159.103         163.103         166.565         174.322
  220         -13.150          19.302          25.302          34.147          34.842          40.493          44.884          45.279          46.987          51.341          57.932          59.194          63.592          64.727          65.223          66.275          67.596          73.892          74.726          77.638          80.468          82.688          84.177          86.167          88.331          89.307          90.198          91.730          95.018          99.636         102.490         105.102         105.214         109.089         112.115         119.907         123.236         129.421         136.774         137.375         137.801         138.485         139.082         143.648         159.123         163.056         166.610         174.429
  221         -13.239          18.931          25.868          34.420          35.080          40.707          45.201          45.617          47.166          51.968          58.172          59.113          63.651          64.617          65.454          66.077          67.728          73.639          75.003          77.580          80.329          82.589          84.488          86.329          88.468          89.362          90.248          91.807          95.043          99.728         102.322         105.074         105.222         109.058         112.104         119.872         123.174         129.461         136.401         137.153         137.808         138.150         138.776         143.655         159.141         163.009         166.655         174.534
  222         -13.319          18.552          26.427          34.685          35.306          40.921          45.455          45.959          47.370          52.601          58.408          59.015          63.721          64.513          65.700          65.883          67.864          73.383          75.268          77.534          80.186          82.490          84.798          86.496          88.598          89.433          90.297          91.881          95.069          99.815         102.154         105.044         105.229         109.027         112.093         119.837         123.113         129.497         136.022         136.929         137.814         137.815         138.470         143.662         159.158         162.962         166.701         174.637
  223         -13.390          18.166          26.981          34.942          35.524          41.135          45.648          46.305          47.601          53.233          58.639          58.903          63.796          64.419          65.697          65.958          68.007          73.124          75.515          77.504          80.040          82.391          85.106          86.667          88.717          89.523          90.347          91.954          95.098          99.895         101.989         105.014         105.237         108.995         112.082         119.802         123.053         129.529         135.639         136.701         137.479         137.822         138.162         143.670         159.173         162.917         166.748         174.739
  224         -13.453          17.774          27.527          35.188          35.737          41.350          45.789          46.655          47.850          53.854          58.778          58.863          63.868          64.336          65.527          66.229          68.156          72.861          75.738          77.498          79.890          82.291          85.409          86.839          88.822          89.638          90.396          92.026          95.129          99.965         101.831         104.983         105.246         108.964         112.071         119.768         122.996         129.558         135.254         136.465         137.150         137.829         137.856         143.677         159.186         162.872         166.795         174.839
  225         -13.508          17.374          28.067          35.421          35.949          41.563          45.892          47.008          48.107          54.459          58.643          59.081          63.925          64.268          65.381          66.513          68.312          72.595          75.928          77.525          79.738          82.193          85.706          87.012          88.912          89.779          90.445          92.096          95.162         100.022         101.684         104.950         105.254         108.932         112.060         119.734         122.941         129.582         134.868         136.216         136.832         137.550         137.836         143.684         159.197         162.827         166.843         174.937
  226         -13.554          16.967          28.600          35.640          36.162          41.775          45.968          47.364          48.363          55.039          58.499          59.289          63.950          64.217          65.275          66.810          68.475          72.326          76.076          77.592          79.582          82.097          85.995          87.185          88.990          89.947          90.493          92.164          95.198         100.059         101.554         104.915         105.263         108.901         112.049         119.700         122.888         129.601         134.483         135.947         136.530         137.246         137.843         143.691         159.207         162.784         166.891         175.033
  227         -13.592          16.553          29.125          35.843          36.379          41.985          46.026          47.723          48.609          55.590          58.348          59.487          63.927          64.185          65.226          67.122          68.647          72.055          76.179          77.704          79.423          82.004          86.274          87.353          89.061          90.138          90.541          92.230          95.237         100.070         101.448         104.877         105.272         108.869         112.039         119.667         122.837         129.615         134.098         135.656         136.249         136.946         137.850         143.698         159.216         162.741         166.939         175.127
  228         -13.621          16.132          29.644          36.030          36.598          42.193          46.074          48.084          48.841          56.107          58.192          59.672          63.846          64.173          65.239          67.448          68.827          71.781          76.241          77.856          79.262          81.913          86.541          87.517          89.129          90.350          90.588          92.295          95.278         100.048         101.375         104.836         105.281         108.838         112.029         119.634         122.789         129.623         133.717         135.343         135.988         136.651         137.856         143.705         159.223         162.700         166.986         175.218
  229         -13.643          15.704          30.154          36.204          36.819          42.397          46.114          48.448          49.056          56.585          58.032          59.841          63.715          64.184          65.307          67.789          69.015          71.506          76.270          78.041          79.097          81.827          86.793          87.671          89.201          90.580          90.635          92.357          95.321          99.990         101.337         104.792         105.291         108.806         112.019         119.602         122.743         129.624         133.339         135.012         135.742         136.363         137.863         143.711         159.228         162.659         167.034         175.307
  230         -13.656          15.270          30.657          36.366          37.039          42.597          46.151          48.813          49.252          57.023          57.870          59.991          63.548          64.216          65.414          68.148          69.213          71.229          76.277          78.247          78.931          81.746          87.030          87.812          89.283          90.681          90.825          92.417          95.367          99.897         101.334         104.744         105.300         108.775         112.009         119.571         122.701         129.617         132.967         134.670         135.504         136.085         137.869         143.718         159.233         162.619         167.081         175.393
  231         -13.662          14.828          31.152          36.518          37.257          42.792          46.188          49.180          49.428          57.421          57.707          60.121          63.358          64.270          65.547          68.524          69.418          70.952          76.270          78.465          78.762          81.672          87.248          87.937          89.379          90.726          91.081          92.476          95.416          99.778         101.359         104.692         105.310         108.745         111.999         119.540         122.661         129.601         132.600         134.322         135.269         135.820         137.876         143.724         159.236         162.581         167.128         175.477
  232         -13.659          14.380          31.638          36.663          37.471          42.982          46.226          49.549          49.583          57.545          57.778          60.228          63.152          64.341          65.695          68.917          69.631          70.676          76.257          78.591          78.690          81.605          87.447          88.041          89.494          90.770          91.348          92.532          95.468          99.640         101.404         104.636         105.320         108.714         111.990         119.510         122.625         129.574         132.242         133.971         135.034         135.570         137.882         143.730         159.239         162.543         167.174         175.558
  233         -13.649          13.924          32.116          36.800          37.678          43.165          46.267          49.719          49.917          57.385          58.099          60.314          62.936          64.426          65.853          69.328          69.851          70.401          76.242          78.418          78.916          81.549          87.626          88.123          89.630          90.813          91.622          92.586          95.523          99.491         101.465         104.574         105.330         108.685         111.981         119.481         122.592         129.535         131.893         133.619         134.795         135.337         137.888         143.736         159.240         162.507         167.219         175.637
  234         -13.631          13.462          32.584          36.932          37.879          43.341          46.311          49.833          50.287          57.228          58.385          60.379          62.714          64.519          66.015          69.753          70.075          70.129          76.226          78.244          79.140          81.504          87.787          88.182          89.785          90.855          91.901          92.638          95.581          99.337         101.535         104.507         105.340         108.655         111.972         119.453         122.562         129.481         131.555         133.270         134.556         135.121         137.894         143.742         159.240         162.472         167.264         175.713
  235         -13.606          12.992          33.044          37.058          38.072          43.509          46.360          49.928          50.655          57.075          58.640          60.426          62.488          64.615          66.177          69.863          70.191          70.303          76.214          78.069          79.359          81.474          87.928          88.220          89.958          90.895          92.181          92.688          95.642          99.181         101.612         104.435         105.350         108.626         111.964         119.426         122.537         129.411         131.231         132.924         134.318         134.921         137.899         143.747         159.240         162.438         167.307         175.785
  236         -13.573          12.514          33.494          37.179          38.257          43.667          46.414          50.004          51.024          56.927          58.867          60.457          62.258          64.711          66.333          69.605          70.529          70.639          76.207          77.892          79.570          81.462          88.051          88.239          90.143          90.934          92.459          92.736          95.706          99.028         101.694         104.357         105.360         108.598         111.956         119.399         122.515         129.322         130.923         132.583         134.085         134.734         137.905         143.753         159.239         162.405         167.349         175.855
  237         -13.533          12.030          33.933          37.295          38.432          43.816          46.475          50.061          51.390          56.787          59.069          60.477          62.027          64.801          66.480          69.361          70.758          71.088          76.205          77.715          79.771          81.470          88.154          88.244          90.337          90.972          92.734          92.781          95.773          98.882         101.779         104.273         105.370         108.571         111.948         119.374         122.498         129.212         130.632         132.249         133.860         134.558         137.910         143.758         159.237         162.374         167.390         175.922
  238         -13.485          11.537          34.362          37.407          38.598          43.954          46.541          50.101          51.755          56.654          59.250          60.487          61.796          64.884          66.608          69.136          70.984          71.535          76.210          77.538          79.961          81.503          88.213          88.264          90.533          91.009          92.825          93.001          95.844          98.744         101.866         104.184         105.380         108.544         111.941         119.350         122.484         129.079         130.361         131.923         133.646         134.393         137.915         143.763         159.235         162.344         167.430         175.986
  239         -13.431          11.037          34.780          37.515          38.753          44.081          46.614          50.123          52.117          56.530          59.411          60.490          61.564          64.958          66.709          68.940          71.206          71.974          76.222          77.362          80.139          81.562          88.198          88.329          90.729          91.043          92.866          93.258          95.918          98.617         101.953         104.089         105.389         108.518         111.933         119.326         122.476         128.923         130.109         131.607         133.447         134.238         137.920         143.767         159.233         162.315         167.468         176.047
  240         -13.370          10.529          35.186          37.618          38.898          44.195          46.695          50.129          52.476          56.416          59.554          60.490          61.333          65.022          66.768          68.787          71.421          72.397          76.242          77.186          80.306          81.649          88.164          88.387          90.921          91.077          92.904          93.502          95.995          98.505         102.042         103.988         105.399         108.493         111.927         119.304         122.471         128.747         129.876         131.301         133.264         134.091         137.924         143.772         159.230         162.288         167.504         176.104
  241         -13.303          10.014          35.580          37.716          39.032          44.296          46.782          50.119          52.830          56.313          59.682          60.487          61.103          65.077          66.774          68.689          71.628          72.799          76.269          77.011          80.467          81.762          88.118          88.431          91.106          91.108          92.941          93.731          96.074          98.409         102.130         103.883         105.408         108.470         111.920         119.283         122.471         128.555         129.658         131.006         133.097         133.952         137.929         143.776         159.227         162.263         167.539         176.158
  242         -13.230           9.490          35.960          37.810          39.156          44.384          46.875          50.095          53.179          56.222          59.795          60.484          60.876          65.122          66.719          68.653          71.826          73.175          76.302          76.839          80.625          81.897          88.063          88.461          91.138          91.282          92.975          93.943          96.156          98.331         102.217         103.773         105.417         108.447         111.914         119.263         122.475         128.352         129.451         130.723         132.949         133.822         137.933         143.780         159.223         162.238         167.572         176.209
  243         -13.152           8.958          36.326          37.899          39.269          44.458          46.976          50.057          53.521          56.143          59.894          60.482          60.651          65.159          66.608          68.675          72.013          73.520          76.340          76.669          80.789          82.051          87.998          88.478          91.166          91.446          93.006          94.136          96.238          98.272         102.302         103.659         105.426         108.425         111.909         119.245         122.483         128.146         129.254         130.454         132.818         133.700         137.937         143.784         159.220         162.216         167.603         176.257
  244         -13.069           8.419          36.676          37.983          39.372          44.518          47.083          50.006          53.855          56.077          59.979          60.429          60.483          65.188          66.453          68.741          72.188          73.832          76.380          76.503          80.964          82.218          87.924          88.482          91.192          91.597          93.036          94.310          96.319          98.235         102.386         103.544         105.434         108.405         111.903         119.227         122.495         127.940         129.064         130.198         132.704         133.587         137.940         143.787         159.216         162.195         167.632         176.301
  245         -12.983           7.872          37.009          38.062          39.464          44.564          47.195          49.943          54.179          56.025          60.051          60.211          60.487          65.210          66.271          68.837          72.349          74.112          76.342          76.418          81.152          82.394          87.840          88.473          91.217          91.735          93.063          94.464          96.399          98.217         102.467         103.427         105.442         108.386         111.898         119.211         122.511         127.740         128.882         129.956         132.606         133.482         137.944         143.790         159.213         162.175         167.659         176.342
  246         -12.895           7.320          37.325          38.135          39.547          44.598          47.314          49.869          54.490          55.987          59.999          60.110          60.496          65.226          66.074          68.950          72.496          74.359          76.187          76.452          81.354          82.576          87.747          88.454          91.239          91.857          93.087          94.600          96.476          98.219         102.544         103.311         105.449         108.368         111.894         119.197         122.529         127.548         128.708         129.729         132.523         133.385         137.947         143.793         159.209         162.157         167.684         176.380
  247         -12.805           6.762          37.620          38.203          39.620          44.619          47.437          49.785          54.785          55.966          59.792          60.156          60.509          65.237          65.873          69.072          72.629          74.577          76.039          76.479          81.567          82.763          87.644          88.426          91.260          91.965          93.110          94.718          96.548          98.238         102.617         103.196         105.456         108.352         111.890         119.183         122.550         127.367         128.545         129.518         132.452         133.297         137.950         143.796         159.206         162.141         167.707         176.414
  248         -12.715           6.203          37.894          38.264          39.683          44.630          47.565          49.692          55.058          55.964          59.592          60.191          60.527          65.245          65.674          69.194          72.746          74.770          75.900          76.495          81.786          82.952          87.532          88.390          91.278          92.058          93.130          94.820          96.615          98.270         102.684         103.087         105.463         108.338         111.886         119.171         122.572         127.199         128.393         129.323         132.393         133.218         137.952         143.798         159.203         162.127         167.728         176.444
  249         -12.628           5.645          38.144          38.320          39.738          44.632          47.696          49.591          55.297          55.990          59.399          60.216          60.547          65.249          65.484          69.313          72.848          74.941          75.770          76.501          82.003          83.143          87.411          88.350          91.294          92.136          93.148          94.908          96.676          98.311         102.743         102.986         105.468         108.324         111.883         119.160         122.596         127.046         128.255         129.146         132.344         133.148         137.954         143.800         159.200         162.114         167.746         176.471
  250         -12.546           5.095          38.368          38.368          39.785          44.626          47.830          49.482          55.485          56.055          59.217          60.234          60.569          65.251          65.308          69.425          72.936          75.092          75.653          76.495          82.209          83.336          87.283          88.308          91.308          92.201          93.163          94.982          96.730          98.357         102.786         102.903         105.473         108.313         111.880         119.151         122.619         126.910         128.134         128.988         132.304         133.086         137.956         143.802         159.198         162.102         167.762         176.495
  251         -12.470           4.563          38.410          38.563          39.823          44.615          47.966          49.368          55.609          56.169          59.046          60.246          60.589          65.150          65.252          69.525          73.009          75.225          75.549          76.480          82.395          83.527          87.151          88.266          91.321          92.254          93.176          95.043          96.778          98.403         102.767         102.884         105.477         108.303         111.878         119.143         122.641         126.792         128.029         128.851         132.272         133.034         137.958         143.804         159.196         162.093         167.775         176.515
  252         -12.403           4.062          38.444          38.728          39.854          44.602          48.102          49.249          55.679          56.315          58.891          60.255          60.608          65.014          65.251          69.611          73.067          75.340          75.461          76.458          82.554          83.712          87.020          88.228          91.330          92.296          93.186          95.094          96.818          98.447         102.705         102.912         105.481         108.295         111.876         119.137         122.661         126.693         127.942         128.735         132.247         132.992         137.959         143.805         159.194         162.085         167.786         176.531
  253         -12.347           3.614          38.471          38.858          39.878          44.589          48.237          49.128          55.717          56.462          58.757          60.261          60.623          64.904          65.250          69.681          73.112          75.390          75.437          76.431          82.680          83.880          86.898          88.196          91.338          92.327          93.195          95.132          96.850          98.484         102.648         102.942         105.484         108.289         111.874         119.132         122.677         126.615         127.874         128.644         132.229         132.958         137.960         143.806         159.192         162.079         167.795         176.543
  254         -12.306           3.249          38.491          38.954          39.894          44.577          48.367          49.008          55.740          56.585          58.650          60.264          60.634          64.823          65.249          69.733          73.144          75.339          75.511          76.406          82.771          84.017          86.797          88.171          91.344          92.348          93.201          95.160          96.873          98.512         102.604         102.964         105.486         108.284         111.873         119.128         122.690         126.558         127.826         128.577         132.216         132.934         137.961         143.807         159.191         162.075         167.801         176.552
  255         -12.280           3.007          38.502          39.012          39.904          44.570          48.479          48.901          55.752          56.667          58.580          60.267          60.641          64.773          65.249          69.765          73.163          75.307          75.558          76.387          82.826          84.109          86.728          88.155          91.347          92.361          93.204          95.177          96.888          98.530         102.578         102.978         105.487         108.282         111.873         119.126         122.698         126.524         127.797         128.537         132.208         132.920         137.962         143.807         159.191         162.072         167.805         176.558
  256         -12.272           2.921          38.506          39.031          39.907          44.567          48.532          48.849          55.755          56.696          58.556          60.267          60.643          64.756          65.248          69.775          73.170          75.296          75.575          76.380          82.844          84.142          86.703          88.150          91.348          92.365          93.205          95.182          96.893          98.536         102.569         102.983         105.487         108.281         111.872         119.125         122.701         126.513         127.787         128.524         132.205         132.915         137.962         143.807         159.190         162.071         167.806         176.560
